449.47,0.953
450.40574780000003,0.953
451.34149560000003,0.953
452.2772434,0.953
453.2129912,0.953
454.148739,0.953
455.0844868,0.953
456.0202346,0.953
456.9559824,0.953
457.8917302,0.953
458.827478,0.953
459.763226,0.953
460.69897399999996,0.952
461.634722,0.952
462.57047,0.952
463.506218,0.952
464.4419658,0.952
465.3777136,0.952
466.3134614,0.953
467.2492092,0.953
468.184957,0.953
469.1207048,0.955
470.0564526,0.956
470.9922004,0.956
471.9279482,0.956
472.863696,0.956
473.7994438,0.956
474.7351916,0.955
475.6709394,0.955
476.6066872,0.953
477.542435,0.953
478.4781828,0.953
479.4139306,0.953
480.3496784,0.953
481.2854262,0.953
482.221174,0.953
483.156922,0.955
484.09267,0.955
485.02841800000004,0.955
485.96416600000003,0.953
486.899914,0.953
487.8356618,0.953
488.7714096,0.953
489.70715739999997,0.953
490.6429052,0.952
491.578653,0.952
492.5144008,0.952
493.4501486,0.952
494.3858964,0.952
495.3216442,0.952
496.257392,0.952
497.1931398,0.952
498.1288876,0.952
499.0646354,0.952
500.0003832,0.952
500.936131,0.952
501.871879,0.951
502.80762699999997,0.951
503.743375,0.951
504.679123,0.951
505.614871,0.949
506.5506188,0.949
507.4863666,0.949
508.4221144,0.949
509.3578622,0.949
510.29361,0.949
511.2293578,0.949
512.1651056000001,0.949
513.1008534,0.949
514.0366012,0.949
514.972349,0.948
515.9080968,0.948
516.8438446,0.948
517.7795924,0.948
518.7153402,0.948
519.651088,0.948
520.5868358,0.948
521.5225836,0.948
522.4583314,0.949
523.3940792,0.948
524.329827,0.948
525.265575,0.948
526.201323,0.948
527.137071,0.948
528.072819,0.948
529.008567,0.949
529.9443148,0.949
530.8800626,0.949
531.8158104,0.949
532.7515582,0.949
533.687306,0.949
534.6230538,0.949
535.5588016,0.948
536.4945494,0.948
537.4302972,0.948
538.366045,0.948
539.3017928,0.948
540.2375406,0.949
541.1732884,0.949
542.1090362,0.949
543.044784,0.951
543.9805318,0.951
544.9162796,0.951
545.8520274,0.951
546.7877752,0.951
547.723523,0.951
548.659271,0.952
549.595019,0.952
550.530767,0.953
551.466515,0.953
552.402263,0.953
553.3380108,0.953
554.2737586,0.953
555.2095064,0.953
556.1452542,0.953
557.081002,0.953
558.0167498,0.953
558.9524976,0.953
559.8882454,0.953
560.8239932,0.953
561.759741,0.955
562.6954888,0.955
563.6312366,0.955
564.5669844,0.956
565.5027322,0.956
566.43848,0.956
567.3742278,0.956
568.3099756,0.956
569.2457234,0.958
570.1814712,0.959
571.117219,0.959
572.052967,0.959
572.988715,0.959
573.9244630000001,0.958
574.860211,0.959
575.795959,0.959
576.7317068,0.959
577.6674546,0.959
578.6032024,0.959
579.5389502,0.961
580.474698,0.961
581.4104458,0.961
582.3461936,0.961
583.2819414,0.961
584.2176892,0.962
585.153437,0.962
586.0891848,0.962
587.0249326,0.962
587.9606804,0.962
588.8964282000001,0.962
589.832176,0.963
590.7679238,0.963
591.7036716,0.963
592.6394194,0.965
593.5751672,0.965
594.510915,0.965
595.446663,0.966
596.3824109999999,0.966
597.318159,0.966
598.253907,0.968
599.189655,0.968
600.1254028,0.968
601.0611506,0.968
601.9968984,0.969
602.9326462,0.969
603.868394,0.969
604.8041418,0.969
605.7398896,0.969
606.6756374,0.969
607.6113852,0.969
608.547133,0.969
609.4828808,0.969
610.4186286,0.969
611.3543764,0.971
612.2901242,0.971
613.225872,0.971
614.16162,0.971
615.097368,0.971
616.0331160000001,0.971
616.968864,0.971
617.904612,0.971
618.8403598,0.971
619.7761076,0.971
620.7118554,0.972
621.6476032,0.971
622.583351,0.971
623.5190987999999,0.971
624.4548466,0.971
625.3905943999999,0.971
626.3263422,0.971
627.26209,0.972
628.1978378,0.972
629.1335856,0.972
630.0693334,0.972
631.0050812,0.974
631.940829,0.972
632.8765768,0.974
633.8123246,0.974
634.7480724,0.974
635.6838202,0.974
636.619568,0.974
637.555316,0.974
638.4910639999999,0.974
639.426812,0.975
640.36256,0.975
641.298308,0.975
642.2340558,0.975
643.1698036,0.975
644.1055514,0.975
645.0412992,0.975
645.977047,0.975
646.9127948,0.975
647.8485426,0.975
648.7842904,0.975
649.7200382,0.975
650.655786,0.975
651.5915338,0.975
652.5272816,0.975
653.4630294,0.976
654.3987772,0.976
655.334525,0.976
656.2702728,0.976
657.2060206,0.976
658.1417684,0.976
659.0775162,0.976
660.013264,0.976
660.949012,0.976
661.88476,0.976
662.820508,0.976
663.756256,0.976
664.692004,0.976
665.6277517999999,0.976
666.5634996,0.976
667.4992474,0.976
668.4349952,0.976
669.370743,0.976
670.3064908,0.976
671.2422386,0.976
672.1779864,0.978
673.1137342,0.978
674.049482,0.978
674.9852298,0.978
675.9209776,0.978
676.8567254,0.979
677.7924732,0.979
678.728221,0.979
679.6639688,0.979
680.5997166,0.981
681.5354644,0.981
682.4712122,0.981
683.40696,0.981
684.342708,0.981
685.278456,0.981
686.214204,0.981
687.149952,0.981
688.0857,0.982
689.0214478,0.982
689.9571956,0.982
690.8929434,0.982
691.8286912,0.984
692.764439,0.984
693.7001868,0.984
694.6359346,0.985
695.5716824,0.985
696.5074302,0.985
697.443178,0.985
698.3789258,0.987
699.3146736,0.987
700.2504214,0.987
701.1861692,0.988
702.121917,0.988
703.0576648,0.988
703.9934126,0.988
704.9291604,0.988
705.8649082000001,0.988
706.800656,0.988
707.736404,0.988
708.672152,0.988
709.6079,0.988
710.543648,0.989
711.479396,0.989
712.4151438,0.989
713.3508916,0.989
714.2866394,0.988
715.2223872,0.988
716.158135,0.989
717.0938828,0.991
718.0296306,0.992
718.9653784,1.004
719.9011262,1.0369
720.836874,1.037
721.7726218,1.005
722.7083696,0.998
723.6441174,0.989
724.5798652,0.988
725.515613,0.988
726.451361,0.988
727.387109,0.988
728.322857,0.988
729.258605,0.988
730.194353,0.989
731.1301008,0.991
732.0658486,0.991
733.0015964,0.991
733.9373442,0.991
734.873092,0.992
735.8088398,0.991
736.7445876,0.991
737.6803354,0.991
738.6160832,0.991
739.551831,0.991
740.4875787999999,0.991
741.4233266,0.991
742.3590743999999,0.992
743.2948222,0.992
744.23057,0.991
745.1663178,0.991
746.1020656,0.991
747.0378134,0.989
747.9735612,0.989
748.909309,0.991
749.845057,0.991
750.780805,0.988
751.716553,0.988
752.652301,0.988
753.588049,0.988
754.5237968,0.988
755.4595446,0.988
756.3952924,0.988
757.3310402,0.988
758.266788,0.988
759.2025358,0.988
760.1382836,0.987
761.0740314,0.987
762.0097792,0.987
762.945527,0.987
763.8812748,0.987
764.8170226,0.987
765.7527704,0.987
766.6885182,0.987
767.624266,0.987
768.5600138,0.987
769.4957616,0.988
770.4315094,0.988
771.3672572,0.987
772.303005,0.987
773.238753,0.987
774.174501,0.987
775.1102490000001,0.987
776.045997,0.987
776.981745,0.987
777.9174928,0.985
778.8532406,0.985
779.7889884,0.985
780.7247362,0.985
781.660484,0.985
782.5962317999999,0.985
783.5319796,0.985
784.4677274,0.985
785.4034752,0.985
786.339223,0.985
787.2749708,0.985
788.2107186,0.987
789.1464664,0.985
790.0822142,0.985
791.017962,0.985
791.9537098,0.985
792.8894576,0.985
793.8252054,0.985
794.7609532,0.985
795.696701,0.985
796.632449,0.985
797.5681969999999,0.985
798.503945,0.985
799.439693,0.984
800.375441,0.984
801.3111888,0.984
802.2469366,0.984
803.1826844,0.984
804.1184322,0.984
805.05418,0.984
805.9899278,0.984
806.9256756,0.984
807.8614234,0.984
808.7971712,0.984
809.732919,0.984
810.6686668,0.984
811.6044146,0.984
812.5401624,0.984
813.4759102,0.984
814.411658,0.984
815.3474058,0.984
816.2831536,0.984
817.2189014,0.984
818.1546492,0.984
819.090397,0.984
820.026145,0.984
820.961893,0.984
821.897641,0.984
822.833389,0.984
823.769137,0.984
824.7048848,0.984
825.6406326,0.985
826.5763804,0.985
827.5121282,0.985
828.447876,0.985
829.3836238,0.985
830.3193716,0.985
831.2551194,0.985
832.1908672,0.985
833.126615,0.985
834.0623628,0.985
834.9981106,0.985
835.9338584,0.985
836.8696062,0.985
837.805354,0.985
838.741102,0.985
839.67685,0.985
840.612598,0.985
841.548346,0.985
842.484094,0.985
843.4198418,0.985
844.3555896,0.985
845.2913374,0.985
846.2270852,0.985
847.162833,0.985
848.0985808,0.985
849.0343286,0.985
849.9700764,0.985
850.9058242,0.985
851.841572,0.985
852.7773198,0.985
853.7130676,0.985
854.6488154,0.985
855.5845632,0.985
856.520311,0.985
857.4560588,0.985
858.3918066,0.985
859.3275544,0.985
860.2633022,0.985
861.19905,0.985
862.134798,0.985
863.070546,0.985
864.006294,0.985
864.942042,0.985
865.87779,0.985
866.8135378,0.985
867.7492856,0.985
868.6850334,0.985
869.6207812,0.985
870.556529,0.985
871.4922768,0.984
872.4280246,0.984
873.3637724,0.984
874.2995202,0.984
875.235268,0.984
876.1710158,0.984
877.1067636,0.984
878.0425114,0.984
878.9782592,0.984
879.914007,0.984
880.8497548,0.984
881.7855026,0.984
882.7212504,0.984
883.6569982,0.985
884.592746,0.985
885.528494,0.985
886.464242,0.985
887.39999,0.985
888.335738,0.985
889.271486,0.985
890.2072338,0.985
891.1429816,0.985
892.0787294,0.985
893.0144772,0.985
893.950225,0.985
894.8859728,0.984
895.8217206,0.984
896.7574684,0.985
897.6932162,0.985
898.628964,0.985
899.5647117999999,0.985
900.5004596,0.987
901.4362074,0.987
902.3719552,0.987
903.307703,0.985
904.2434508,0.985
905.1791986,0.985
906.1149464,0.985
907.0506942,0.987
907.986442,0.987
908.92219,0.987
909.857938,0.987
910.793686,0.987
911.729434,0.988
912.665182,0.988
913.6009298,0.988
914.5366776,0.988
915.4724254,0.989
916.4081732,0.989
917.343921,0.989
918.2796688,0.989
919.2154166,0.989
920.1511644,0.989
921.0869122,0.988
922.02266,0.989
922.9584078,0.989
923.8941556,0.989
924.8299034,0.989
925.7656512,0.989
926.701399,0.989
927.6371468,0.989
928.5728946,0.989
929.5086424,0.989
930.4443902,0.991
931.380138,0.989
932.315886,0.991
933.251634,0.991
934.1873820000001,0.991
935.1231300000001,0.991
936.058878,0.991
936.9946258,0.991
937.9303736,0.991
938.8661214,0.991
939.8018692,0.991
940.737617,0.991
941.6733648,0.992
942.6091126,0.991
943.5448604,0.991
944.4806082,0.991
945.416356,0.991
946.3521038,0.991
947.2878516,0.989
948.2235994,0.989
949.1593472,0.991
950.095095,0.992
951.030843,0.994
951.966591,0.994
952.902339,0.994
953.838087,0.994
954.773835,0.994
955.7095828,0.994
956.6453306,0.995
957.5810784,0.995
958.5168262,0.995
959.452574,0.997
960.3883218,0.997
961.3240696,0.997
962.2598174,0.997
963.1955652,0.997
964.131313,0.995
965.0670608,0.997
966.0028086,0.997
966.9385564,0.997
967.8743042,0.997
968.810052,0.997
969.7457998,0.997
970.6815476,0.997
971.6172954,0.997
972.5530432,0.998
973.488791,0.998
974.424539,0.998
975.360287,0.998
976.2960350000001,0.998
977.2317830000001,0.998
978.167531,0.998
979.1032788,1.001
980.0390266,1.001
980.9747744,1.001
981.9105222000001,1.001
982.84627,1.001
983.7820178,1.001
984.7177656,1.001
985.6535134,1.001
986.5892612,1.001
987.525009,1.001
988.4607568,1.001
989.3965046,1.001
990.3322524,1.001
991.2680002,1.001
992.203748,1.001
993.1394958,1.001
994.0752436,1.001
995.0109914,1.001
995.9467392,1.001
996.882487,1.001
997.818235,1.001
998.753983,1.001
999.689731,1.001
1000.625479,1.001
1001.561227,1.001
1002.4969748,1.001
1003.4327226,1.001
1004.3684704,1.001
1005.3042182,1.001
1006.239966,1.001
1007.1757138,1.001
1008.1114616,1.001
1009.0472094,1.001
1009.9829572,1.001
1010.918705,1.001
1011.8544528,1.001
1012.7902006,1.001
1013.7259484,1.001
1014.6616962,1.001
1015.597444,1.002
1016.5331917999999,1.004
1017.4689396,1.004
1018.4046874,1.004
1019.3404352,1.004
1020.276183,1.002
1021.2119309999999,1.004
1022.1476789999999,1.004
1023.083427,1.004
1024.019175,1.004
1024.954923,1.004
1025.8906708,1.004
1026.8264186,1.004
1027.7621664,1.005
1028.6979142,1.005
1029.633662,1.007
1030.5694098,1.007
1031.5051575999998,1.005
1032.4409054,1.005
1033.3766532,1.005
1034.312401,1.004
1035.2481487999999,1.004
1036.1838966,1.004
1037.1196444,1.002
1038.0553922000001,1.002
1038.99114,1.002
1039.9268878,1.002
1040.8626356,1.002
1041.7983834000001,1.002
1042.7341312,1.002
1043.669879,1.002
1044.6056270000001,1.002
1045.541375,1.002
1046.4771230000001,1.002
1047.412871,1.002
1048.348619,1.002
1049.2843668,1.002
1050.2201146,1.002
1051.1558624000002,1.002
1052.0916102,1.002
1053.027358,1.002
1053.9631058,1.002
1054.8988536,1.002
1055.8346014,1.002
1056.7703492,1.002
1057.706097,1.002
1058.6418448,1.002
1059.5775926,1.002
1060.5133404,1.002
1061.4490882,1.001
1062.384836,1.001
1063.320584,1.001
1064.256332,1.0
1065.19208,1.002
1066.127828,1.001
1067.063576,1.001
1067.9993238,1.0
1068.9350716,0.998
1069.8708194,0.998
1070.8065672,0.998
1071.742315,0.997
1072.6780628,0.997
1073.6138105999999,0.998
1074.5495584,1.001
1075.4853062,1.002
1076.421054,1.002
1077.3568017999999,1.002
1078.2925496,1.002
1079.2282974,1.002
1080.1640452000001,1.004
1081.099793,1.004
1082.0355408,1.001
1082.9712886,1.001
1083.9070364000002,1.001
1084.8427842,1.001
1085.778532,1.001
1086.7142800000001,1.001
1087.650028,1.001
1088.5857760000001,1.001
1089.521524,1.001
1090.457272,1.001
1091.3930198,1.0
1092.3287676,1.0
1093.2645154000002,1.002
1094.2002632,1.002
1095.136011,1.002
1096.0717588,1.002
1097.0075066,1.002
1097.9432544000001,1.002
1098.8790022,1.002
1099.81475,1.002
1100.7504978,1.004
1101.6862456,1.004
1102.6219934,1.004
1103.5577412,1.004
1104.493489,1.002
1105.4292368,1.004
1106.3649845999998,1.004
1107.3007324,1.004
1108.2364802,1.004
1109.172228,1.004
1110.107976,1.004
1111.0437239999999,1.004
1111.979472,1.004
1112.9152199999999,1.004
1113.850968,1.004
1114.7867158,1.004
1115.7224635999999,1.004
1116.6582114,1.004
1117.5939592,1.004
1118.529707,1.004
1119.4654547999999,1.004
1120.4012026,1.004
1121.3369504,1.004
1122.2726982000001,1.004
1123.208446,1.004
1124.1441938,1.005
1125.0799416,1.004
1126.0156894000002,1.004
1126.9514372,1.002
1127.887185,1.002
1128.8229328,1.002
1129.7586806,1.001
1130.6944284,1.001
1131.6301762,1.001
1132.565924,1.0
1133.501672,1.0
1134.43742,0.998
1135.373168,0.998
1136.308916,0.997
1137.244664,0.994
1138.1804118,0.992
1139.1161596,0.992
1140.0519074000001,0.992
1140.9876552,0.994
1141.923403,0.994
1142.8591508,0.997
1143.7948986,0.998
1144.7306464,0.998
1145.6663942,1.0
1146.602142,1.0
1147.5378898,1.0
1148.4736375999998,1.0
1149.4093854,1.0
1150.3451332,1.0
1151.280881,1.001
1152.2166287999999,1.001
1153.1523766,1.001
1154.0881244,1.002
1155.0238722000001,1.002
1155.95962,1.001
1156.895368,1.0
1157.831116,0.998
1158.766864,0.998
1159.702612,1.002
1160.63836,1.002
1161.5741077999999,1.002
1162.5098556,1.002
1163.4456034,1.001
1164.3813512000002,1.0
1165.317099,1.0
1166.2528468,1.0
1167.1885946,1.0
1168.1243424000002,1.0
1169.0600902,1.0
1169.995838,0.998
1170.9315858,1.002
1171.8673336,1.001
1172.8030814,0.998
1173.7388292,0.995
1174.674577,0.992
1175.610325,0.991
1176.546073,0.988
1177.481821,0.985
1178.417569,0.982
1179.353317,0.981
1180.2890648,0.982
1181.2248126,0.985
1182.1605604000001,0.989
1183.0963082,0.992
1184.032056,0.995
1184.9678038,0.995
1185.9035516,0.994
1186.8392994,0.991
1187.7750472,0.988
1188.710795,0.981
1189.6465428,0.976
1190.5822905999999,0.974
1191.5180384,0.976
1192.4537862,0.984
1193.389534,0.989
1194.3252817999999,0.989
1195.2610296,0.989
1196.1967774,0.991
1197.1325252000001,0.991
1198.068273,0.988
1199.004021,0.981
1199.939769,0.978
1200.875517,0.963
1201.811265,0.968
1202.747013,0.984
1203.6827607999999,0.988
1204.6185086,1.001
1205.5542564,1.001
1206.4900042000002,0.998
1207.425752,0.994
1208.3614998,0.992
1209.2972476,0.989
1210.2329954000002,0.916
1211.1687432,0.913
1212.104491,1.0139
1213.0402388,1.014
1213.9759866,1.011
1214.9117344000001,0.9761
1215.8474822,0.9401
1216.78323,0.935
1217.7189778,0.933
1218.6547256,0.917
1219.5904734,0.878
1220.5262212,0.878
1221.461969,0.881
1222.397717,0.902
1223.333465,0.909
1224.269213,0.9319
1225.204961,0.942
1226.140709,0.9581
1227.0764568,0.988
1228.0122046,0.9879
1228.9479524,0.832
1229.8837002,0.769
1230.819448,0.769
1231.7551958,0.8998
1232.6909435999999,0.9878
1233.6266914,0.981
1234.5624392,0.8535
1235.498187,0.7989
1236.4339347999999,0.7469
1237.3696826,0.697
1238.3054304,0.697
1239.2411782000001,0.752
1240.176926,0.8959
1241.1126738,0.7592
1242.0484216,0.736
1242.9841694000002,0.736
1243.9199172,0.8317
1244.855665,0.7679
1245.7914130000001,0.7269
1246.727161,0.662
1247.6629090000001,0.6621
1248.598657,0.727
1249.534405,0.729
1250.4701528,0.8169
1251.4059006,0.9348
1252.3416484000002,0.935
1253.2773962,0.6956
1254.213144,0.618
1255.1488918,0.6183
1256.0846396,0.78
1257.0203874000001,0.7821
1257.9561352,0.89
1258.891883,0.7231
1259.8276308,0.6421
1260.7633786,0.5991
1261.6991264,0.5591
1262.6348742,0.559
1263.570622,0.6421
1264.50637,0.6781
1265.442118,0.73
1266.377866,0.731
1267.313614,0.7309
1268.249362,0.603
1269.1851098,0.566
1270.1208576,0.547
1271.0566054,0.528
1271.9923532,0.5789
1272.928101,0.6522
1273.8638488,0.7442
1274.7995965999999,0.8909
1275.7353444,0.7649
1276.6710922,0.599
1277.60684,0.599
1278.5425877999999,0.6909
1279.4783356,0.7469
1280.4140834,0.8777
1281.3498312000002,0.883
1282.285579,0.7856
1283.2213268,0.6257
1284.1570746,0.4653
1285.0928224000002,0.6711
1286.0285702,0.798
1286.964318,0.876
1287.9000660000002,0.7831
1288.835814,0.6412
1289.7715620000001,0.4983
1290.70731,0.498
1291.643058,0.818
1292.5788058,0.8306
1293.5145536,0.574
1294.4503014000002,0.573
1295.3860492000001,0.57
1296.321797,0.553
1297.2575448,0.543
1298.1932926,0.533
1299.1290404000001,0.5041
1300.0647882,0.4841
1301.000536,0.3047
1301.9362838,0.2108
1302.8720316,0.1189
1303.8077794,0.074
1304.7435272,0.028
1305.679275,0.028
1306.6150228,0.1419
1307.5507705999999,0.1999
1308.4865184,0.6351
1309.4222662,0.8265
1310.358014,0.9347
1311.293762,0.8151
1312.22951,0.876
1313.165258,0.899
1314.1010059999999,0.958
1315.036754,0.961
1315.9725018,0.8681
1316.9082495999999,0.8211
1317.8439974,0.821
1318.7797452,0.9356
1319.715493,0.945
1320.6512407999999,0.9446
1321.5869886,0.753
1322.5227364,0.736
1323.4584842000002,0.757
1324.394232,0.9159
1325.3299798,0.916
1326.2657276,0.7103
1327.2014754000002,0.6521
1328.1372232,0.644
1329.072971,0.4775
1330.0087188,0.3136
1330.9444666,0.92
1331.8802144,0.9197
1332.8159622,0.6818
1333.75171,0.445
1334.687458,0.2071
1335.623206,0.207
1336.558954,0.9188
1337.494702,0.6626
1338.43045,0.4028
1339.3661978,0.3178
1340.3019456,0.235
1341.2376934000001,0.91
1342.1734412,0.9069
1343.109189,0.6441
1344.0449368,0.3803
1344.9806846,0.1933
1345.9164324,0.9044
1346.8521802,0.906
1347.787928,0.6813
1348.7236758,0.4585
1349.6594235999999,0.2448
1350.5951714,0.6823
1351.5309192,0.9198
1352.466667,0.68
1353.4024147999999,0.4391
1354.3381626,0.3551
1355.2739104,0.4389
1356.2096582000001,0.862
1357.145406,0.6665
1358.081154,0.469
1359.016902,0.4648
1359.95265,0.296
1360.888398,0.296
1361.824146,0.4689
1362.7598937999999,0.8336
1363.6956416,0.7861
1364.6313894,0.7341
1365.5671372000002,0.6981
1366.502885,0.659
1367.4386328,0.6591
1368.3743806,0.6842
1369.3101284000002,0.7652
1370.2458762,0.919
1371.181624,0.864
1372.1173718,0.847
1373.0531196,0.7681
1373.9888674000001,0.747
1374.9246152,0.6772
1375.860363,0.6775
1376.796111,0.883
1377.731859,0.864
1378.667607,0.861
1379.603355,0.864
1380.539103,0.871
1381.4748508,0.887
1382.4105986,0.891
1383.3463464000001,0.893
1384.2820942,0.894
1385.217842,0.914
1386.1535898,0.923
1387.0893376,0.935
1388.0250854,0.943
1388.9608332,0.955
1389.896581,0.958
1390.8323288,0.966
1391.7680765999999,0.968
1392.7038244,0.971
1393.6395722,0.969
1394.57532,0.972
1395.5110677999999,0.975
1396.4468156,0.976
1397.3825634,0.978
1398.3183112000002,0.978
1399.254059,0.979
1400.189807,0.979
1401.125555,0.981
1402.061303,0.982
1402.997051,0.982
1403.932799,0.982
1404.8685467999999,0.979
1405.8042946,0.979
1406.7400424,0.984
1407.6757902000002,0.984
1408.611538,0.984
1409.5472858,0.984
1410.4830336,0.984
1411.4187814000002,0.984
1412.3545292000001,0.984
1413.290277,0.984
1414.2260248,0.984
1415.1617726,0.984
1416.0975204000001,0.982
1417.0332682,0.979
1417.969016,0.978
1418.9047638,0.978
1419.8405116,0.978
1420.7762594,0.985
1421.7120072,0.985
1422.647755,0.982
1423.583503,0.978
1424.519251,0.975
1425.454999,0.975
1426.390747,0.982
1427.326495,0.984
1428.2622428,0.985
1429.1979906,0.985
1430.1337384,0.985
1431.0694862,0.984
1432.005234,0.975
1432.9409818,0.971
1433.8767295999999,0.972
1434.8124774,0.976
1435.7482252,0.981
1436.683973,0.981
1437.6197207999999,0.982
1438.5554686,0.978
1439.4912164,0.972
1440.4269642000002,0.972
1441.362712,0.981
1442.2984598,0.981
1443.2342076,0.981
1444.1699554000002,0.981
1445.1057032,0.981
1446.041451,0.981
1446.9771990000002,0.979
1447.912947,0.969
1448.8486950000001,0.958
1449.784443,0.978
1450.720191,0.979
1451.6559388,0.979
1452.5916866,0.978
1453.5274344000002,0.974
1454.4631822000001,0.974
1455.39893,0.972
1456.3346778,0.966
1457.2704256,0.966
1458.2061734000001,0.974
1459.1419212,0.979
1460.077669,0.981
1461.0134168,0.981
1461.9491646,0.979
1462.8849124,0.976
1463.8206602,0.976
1464.756408,0.974
1465.6921558,0.974
1466.6279035999999,0.978
1467.5636514,0.981
1468.4993992,0.982
1469.435147,0.984
1470.370895,0.982
1471.306643,0.981
1472.242391,0.978
1473.1781389999999,0.976
1474.113887,0.974
1475.0496348,0.975
1475.9853825999999,0.981
1476.9211304,0.985
1477.8568782,0.987
1478.792626,0.987
1479.7283737999999,0.987
1480.6641216,0.987
1481.5998694,0.981
1482.5356172000002,0.981
1483.471365,0.981
1484.4071128,0.981
1485.3428606,0.985
1486.2786084000002,0.985
1487.2143562,0.987
1488.150104,0.987
1489.085852,0.987
1490.0216,0.987
1490.957348,0.981
1491.893096,0.985
1492.828844,0.987
1493.7645917999998,0.987
1494.7003396,0.987
1495.6360874,0.987
1496.5718352000001,0.987
1497.507583,0.988
1498.4433308,0.988
1499.3790786,0.988
1500.3148264000001,0.988
1501.2505742,0.988
1502.186322,0.985
1503.1220698,0.981
1504.0578176,0.985
1504.9935654,0.985
1505.9293132,0.987
1506.865061,0.987
1507.8008088,0.987
1508.7365565999999,0.987
1509.6723044,0.988
1510.6080522,0.988
1511.5438,0.989
1512.479548,0.989
1513.415296,0.989
1514.351044,0.989
1515.2867919999999,0.989
1516.22254,0.989
1517.1582878,0.989
1518.0940355999999,0.988
1519.0297834,0.988
1519.9655312,0.988
1520.901279,0.989
1521.8370267999999,0.988
1522.7727746,0.989
1523.7085224,0.989
1524.6442702000002,0.989
1525.580018,0.991
1526.5157658,0.991
1527.4515136,0.991
1528.3872614000002,0.991
1529.3230092000001,0.991
1530.258757,0.991
1531.1945048,0.991
1532.1302526,0.988
1533.0660004000001,0.982
1534.0017482,0.979
1534.937496,0.971
1535.873244,0.961
1536.808992,0.956
1537.74474,0.952
1538.680488,0.948
1539.616236,0.945
1540.5519838,0.945
1541.4877316,0.953
1542.4234794000001,0.956
1543.3592272,0.961
1544.294975,0.965
1545.2307228,0.968
1546.1664706,0.969
1547.1022184,0.972
1548.0379662,0.974
1548.973714,0.976
1549.9094618,0.978
1550.8452095999999,0.978
1551.7809574,0.979
1552.7167052,0.979
1553.652453,0.981
1554.5882007999999,0.981
1555.5239486,0.982
1556.4596964,0.982
1557.3954442000002,0.982
1558.331192,0.984
1559.26694,0.984
1560.202688,0.984
1561.138436,0.984
1562.074184,0.984
1563.009932,0.985
1563.9456797999999,0.985
1564.8814276,0.987
1565.8171754,0.987
1566.7529232000002,0.988
1567.688671,0.988
1568.6244188,0.988
1569.5601666,0.987
1570.4959144000002,0.987
1571.4316622000001,0.987
1572.36741,0.985
1573.3031578,0.985
1574.2389056,0.984
1575.1746534000001,0.984
1576.1104012,0.984
1577.046149,0.984
1577.9818968,0.985
1578.9176446,0.987
1579.8533924,0.987
1580.7891402,0.987
1581.724888,0.987
1582.660636,0.987
1583.596384,0.987
1584.532132,0.987
1585.46788,0.987
1586.403628,0.987
1587.3393758,0.987
1588.2751236,0.987
1589.2108714,0.988
1590.1466192,0.988
1591.082367,0.989
1592.0181148,0.989
1592.9538625999999,0.987
1593.8896104,0.987
1594.8253582,0.987
1595.761106,0.987
1596.6968537999999,0.985
1597.6326016,0.985
1598.5683494,0.985
1599.5040972000002,0.985
1600.439845,0.985
1601.375593,0.987
1602.311341,0.987
1603.247089,0.985
1604.182837,0.985
1605.118585,0.985
1606.0543327999999,0.984
1606.9900805999998,0.984
1607.9258284,0.984
1608.8615762,0.982
1609.797324,0.979
1610.7330717999998,0.981
1611.6688196,0.981
1612.6045674,0.982
1613.5403152000001,0.982
1614.476063,0.984
1615.4118108,0.984
1616.3475586,0.984
1617.2833064000001,0.984
1618.2190542,0.984
1619.154802,0.984
1620.0905498,0.982
1621.0262976,0.981
1621.9620454,0.978
1622.8977932,0.978
1623.833541,0.981
1624.769289,0.984
1625.705037,0.985
1626.640785,0.985
1627.576533,0.985
1628.512281,0.985
1629.4480288,0.984
1630.3837766,0.981
1631.3195244,0.979
1632.2552722,0.979
1633.19102,0.984
1634.1267678,0.984
1635.0625155999999,0.985
1635.9982634,0.985
1636.9340112,0.984
1637.869759,0.982
1638.8055067999999,0.982
1639.7412546,0.982
1640.6770024,0.981
1641.6127502000002,0.979
1642.548498,0.975
1643.4842458,0.976
1644.4199936,0.979
1645.3557414000002,0.979
1646.2914892000001,0.981
1647.227237,0.981
1648.162985,0.982
1649.098733,0.981
1650.034481,0.981
1650.970229,0.979
1651.905977,0.978
1652.8417247999998,0.979
1653.7774726,0.981
1654.7132204,0.982
1655.6489682000001,0.984
1656.584716,0.985
1657.5204638,0.985
1658.4562116,0.987
1659.3919594000001,0.987
1660.3277072,0.987
1661.263455,0.985
1662.1992028,0.984
1663.1349506,0.982
1664.0706984,0.981
1665.0064462,0.981
1665.942194,0.981
1666.8779418,0.981
1667.8136895999999,0.981
1668.7494374,0.984
1669.6851852,0.984
1670.620933,0.979
1671.556681,0.979
1672.492429,0.984
1673.428177,0.984
1674.3639249999999,0.982
1675.299673,0.981
1676.2354208,0.981
1677.1711685999999,0.981
1678.1069164,0.981
1679.0426642,0.982
1679.978412,0.984
1680.9141597999999,0.985
1681.8499076,0.982
1682.7856554,0.982
1683.7214032000002,0.982
1684.657151,0.982
1685.5928988,0.982
1686.5286466,0.984
1687.4643944000002,0.984
1688.4001422000001,0.984
1689.33589,0.985
1690.2716378,0.979
1691.2073856,0.979
1692.1431334000001,0.979
1693.0788812,0.979
1694.014629,0.979
1694.9503770000001,0.979
1695.886125,0.979
1696.821873,0.979
1697.757621,0.979
1698.693369,0.979
1699.6291168,0.979
1700.5648646,0.979
1701.5006124000001,0.982
1702.4363602,0.981
1703.372108,0.979
1704.3078558,0.979
1705.2436036,0.979
1706.1793514,0.979
1707.1150992,0.979
1708.050847,0.979
1708.9865948,0.979
1709.9223425999999,0.979
1710.8580904,0.979
1711.7938382,0.978
1712.729586,0.978
1713.665334,0.978
1714.601082,0.978
1715.53683,0.978
1716.4725779999999,0.979
1717.408326,0.981
1718.3440738,0.981
1719.2798215999999,0.979
1720.2155694,0.981
1721.1513172,0.981
1722.087065,0.979
1723.0228127999999,0.979
1723.9585605999998,0.979
1724.8943084,0.979
1725.8300562,0.979
1726.765804,0.979
1727.7015517999998,0.979
1728.6372996,0.978
1729.5730474,0.978
1730.5087952000001,0.978
1731.444543,0.979
1732.3802908,0.981
1733.3160386,0.982
1734.2517864000001,0.982
1735.1875342,0.982
1736.123282,0.982
1737.0590300000001,0.982
1737.994778,0.981
1738.930526,0.981
1739.866274,0.981
1740.802022,0.981
1741.7377698,0.981
1742.6735176,0.981
1743.6092654000001,0.981
1744.5450132,0.981
1745.480761,0.981
1746.4165088,0.981
1747.3522566,0.981
1748.2880044,0.981
1749.2237522,0.981
1750.1595,0.981
1751.0952478,0.981
1752.0309955999999,0.981
1752.9667434,0.981
1753.9024912,0.982
1754.838239,0.982
1755.7739867999999,0.982
1756.7097346,0.982
1757.6454824,0.982
1758.5812302000002,0.982
1759.516978,0.982
1760.452726,0.982
1761.388474,0.982
1762.324222,0.982
1763.25997,0.982
1764.195718,0.982
1765.1314658,0.982
1766.0672135999998,0.982
1767.0029614,0.982
1767.9387092,0.982
1768.874457,0.982
1769.8102047999998,0.982
1770.7459526,0.984
1771.6817004,0.984
1772.6174482000001,0.984
1773.553196,0.985
1774.4889438,0.985
1775.4246916,0.985
1776.3604394000001,0.985
1777.2961872,0.984
1778.231935,0.984
1779.1676828,0.985
1780.1034306,0.984
1781.0391784,0.984
1781.9749262,0.984
1782.910674,0.984
1783.846422,0.984
1784.78217,0.984
1785.717918,0.984
1786.653666,0.985
1787.589414,0.985
1788.5251618,0.985
1789.4609096,0.985
1790.3966574,0.985
1791.3324052,0.985
1792.268153,0.985
1793.2039008,0.985
1794.1396485999999,0.985
1795.0753964,0.985
1796.0111442,0.985
1796.946892,0.985
1797.8826397999999,0.985
1798.8183876,0.985
1799.7541354,0.985
1800.6898832000002,0.985
1801.625631,0.985
1802.5613788,0.985
1803.4971266,0.987
1804.4328744000002,0.988
1805.3686222000001,0.988
1806.30437,0.988
1807.240118,0.988
1808.175866,0.988
1809.111614,0.988
1810.047362,0.988
1810.98311,0.988
1811.9188577999998,0.988
1812.8546056,0.988
1813.7903534,0.988
1814.7261012000001,0.987
1815.661849,0.987
1816.5975968,0.987
1817.5333446,0.987
1818.4690924000001,0.985
1819.4048402,0.985
1820.340588,0.985
1821.2763358,0.985
1822.2120836,0.985
1823.1478314,0.985
1824.0835792,0.985
1825.019327,0.985
1825.955075,0.985
1826.890823,0.985
1827.826571,0.985
1828.762319,0.987
1829.698067,0.987
1830.6338148,0.985
1831.5695626,0.987
1832.5053104,0.985
1833.4410582,0.985
1834.376806,0.987
1835.3125538,0.987
1836.2483015999999,0.987
1837.1840494,0.987
1838.1197972,0.985
1839.055545,0.985
1839.9912927999999,0.985
1840.9270405999998,0.985
1841.8627884,0.985
1842.7985362,0.985
1843.734284,0.985
1844.6700317999998,0.985
1845.6057796,0.985
1846.5415274,0.985
1847.4772752000001,0.985
1848.413023,0.985
1849.348771,0.985
1850.284519,0.985
1851.220267,0.985
1852.156015,0.985
1853.091763,0.985
1854.0275107999998,0.985
1854.9632586,0.985
1855.8990064,0.985
1856.8347542000001,0.985
1857.770502,0.985
1858.7062498,0.985
1859.6419976,0.985
1860.5777454000001,0.987
1861.5134932,0.987
1862.449241,0.987
1863.3849888,0.987
1864.3207366,0.987
1865.2564844,0.987
1866.1922322,0.987
1867.12798,0.987
1868.0637278,0.987
1868.9994755999999,0.987
1869.9352234,0.987
1870.8709712,0.985
1871.806719,0.985
1872.742467,0.985
1873.678215,0.985
1874.613963,0.985
1875.549711,0.985
1876.485459,0.985
1877.4212068,0.985
1878.3569545999999,0.985
1879.2927024,0.985
1880.2284502,0.985
1881.164198,0.987
1882.0999458,0.987
1883.0356935999998,0.985
1883.9714414,0.985
1884.9071892,0.985
1885.842937,0.985
1886.7786847999998,0.984
1887.7144326,0.984
1888.6501804,0.984
1889.5859282000001,0.984
1890.521676,0.984
1891.4574238,0.984
1892.3931716,0.984
1893.3289194000001,0.984
1894.2646672,0.984
1895.200415,0.984
1896.1361630000001,0.984
1897.071911,0.984
1898.007659,0.984
1898.943407,0.984
1899.879155,0.984
1900.8149028,0.984
1901.7506506,0.984
1902.6863984000001,0.984
1903.6221462,0.984
1904.557894,0.984
1905.4936418,0.985
1906.4293896,0.984
1907.3651374,0.984
1908.3008852,0.982
1909.236633,0.982
1910.1723808,0.982
1911.1081285999999,0.982
1912.0438764,0.982
1912.9796242,0.982
1913.915372,0.982
1914.85112,0.982
1915.786868,0.982
1916.722616,0.982
1917.658364,0.982
1918.594112,0.982
1919.5298598,0.982
1920.4656075999999,0.984
1921.4013554,0.984
1922.3371032,0.985
1923.272851,0.985
1924.2085988,0.985
1925.1443465999998,0.985
1926.0800944,0.984
1927.0158422,0.984
1927.95159,0.984
1928.8873377999998,0.984
1929.8230856,0.982
1930.7588334,0.982
1931.6945812000001,0.982
1932.630329,0.982
1933.5660768,0.982
1934.5018246,0.982
1935.4375724000001,0.982
1936.3733202,0.982
1937.309068,0.982
1938.2448160000001,0.984
1939.180564,0.984
1940.116312,0.984
1941.05206,0.984
1941.987808,0.984
1942.9235558,0.984
1943.8593036,0.984
1944.7950514000001,0.984
1945.7307992,0.982
1946.666547,0.982
1947.6022948,0.982
1948.5380426,0.982
1949.4737904,0.982
1950.4095382,0.982
1951.345286,0.982
1952.2810338,0.982
1953.2167815999999,0.982
1954.1525294,0.982
1955.0882772,0.982
1956.024025,0.984
1956.9597727999999,0.985
1957.8955205999998,0.985
1958.8312684,0.985
1959.7670162,0.987
1960.702764,0.987
1961.638512,0.988
1962.5742599999999,0.988
1963.510008,0.987
1964.4457559999998,0.987
1965.381504,0.987
1966.3172518,0.988
1967.2529995999998,0.988
1968.1887474,0.988
1969.1244952,0.989
1970.060243,0.989
1970.9959907999998,0.989
1971.9317386,0.989
1972.8674864,0.988
1973.8032342000001,0.988
1974.738982,0.988
1975.6747298,0.989
1976.6104776,0.988
1977.5462254000001,0.988
1978.4819732,0.988
1979.417721,0.988
1980.3534688,0.988
1981.2892166,0.988
1982.2249644,0.988
1983.1607122,0.989
1984.09646,0.989
1985.032208,0.989
1985.967956,0.989
1986.903704,0.989
1987.839452,0.989
1988.7752,0.989
1989.7109478,0.989
1990.6466956,0.989
1991.5824434,0.991
1992.5181912,0.991
1993.453939,0.991
1994.3896868,0.991
1995.3254345999999,0.991
1996.2611824,0.991
1997.1969302,0.991
1998.132678,0.991
1999.0684257999999,0.991
2000.0041735999998,0.991
2000.9399214,0.9915
2001.8756692,0.992
2002.811417,0.9915
2003.7471647999998,0.991
2004.6829126,0.991
2005.6186604,0.991
2006.5544082000001,0.991
2007.490156,0.991
2008.425904,0.991
2009.361652,0.991
2010.2974,0.991
2011.233148,0.991
2012.168896,0.991
2013.1046437999998,0.991
2014.0403916,0.991
2014.9761394,0.991
2015.9118872000001,0.991
2016.847635,0.991
2017.7833828,0.991
2018.7191306,0.991
2019.6548784000001,0.991
2020.5906262,0.991
2021.526374,0.991
2022.4621218,0.991
2023.3978696,0.991
2024.3336174,0.991
2025.2693652,0.9901
2026.205113,0.9891
2027.140861,0.989
2028.076609,0.989
2029.012357,0.989
2029.948105,0.989
2030.883853,0.9899
2031.8196008,0.9909
2032.7553486,0.991
2033.6910964,0.991
2034.6268442,0.991
2035.562592,0.991
2036.4983398,0.991
2037.4340875999999,0.991
2038.3698354,0.991
2039.3055832,0.991
2040.241331,0.991
2041.1770788,0.991
2042.1128265999998,0.9901
2043.0485744,0.9891
2043.9843222,0.989
2044.92007,0.989
2045.8558177999998,0.989
2046.7915656,0.989
2047.7273134,0.9898
2048.6630612,0.9908
2049.598809,0.9902
2050.534557,0.9892
2051.470305,0.989
2052.406053,0.989
2053.341801,0.989
2054.277549,0.989
2055.2132968,0.989
2056.1490446,0.989
2057.0847924,0.989
2058.0205401999997,0.989
2058.956288,0.989
2059.8920358,0.989
2060.8277835999997,0.989
2061.7635314,0.989
2062.6992791999996,0.989
2063.635027,0.989
2064.5707748,0.989
2065.5065226,0.989
2066.4422704,0.989
2067.3780182,0.989
2068.313766,0.989
2069.2495138000004,0.989
2070.1852616,0.989
2071.1210094000003,0.989
2072.0567572,0.989
2072.992505,0.989
2073.928253,0.989
2074.864001,0.989
2075.7997490000002,0.989
2076.735497,0.989
2077.671245,0.989
2078.6069928,0.989
2079.5427406,0.989
2080.4784884,0.989
2081.4142362,0.989
2082.349984,0.989
2083.2857318,0.989
2084.2214796,0.989
2085.1572274,0.989
2086.0929751999997,0.989
2087.028723,0.989
2087.9644708,0.989
2088.9002186,0.989
2089.8359664,0.989
2090.7717141999997,0.989
2091.707462,0.989
2092.6432098,0.989
2093.5789575999997,0.989
2094.5147054,0.989
2095.4504531999996,0.989
2096.386201,0.989
2097.3219489999997,0.989
2098.257697,0.989
2099.193445,0.989
2100.129193,0.989
2101.064941,0.989
2102.0006888000003,0.989
2102.9364366,0.989
2103.8721844,0.989
2104.8079322,0.989
2105.74368,0.989
2106.6794278,0.989
2107.6151756,0.989
2108.5509234,0.989
2109.4866712,0.989
2110.422419,0.989
2111.3581668,0.989
2112.2939146,0.989
2113.2296624,0.989
2114.1654101999998,0.989
2115.101158,0.989
2116.0369058,0.989
2116.9726536,0.9887
2117.9084014,0.9882
2118.8441491999997,0.988
2119.779897,0.988
2120.7156449999998,0.9883
2121.651393,0.9888
2122.587141,0.989
2123.5228890000003,0.989
2124.458637,0.989
2125.3943848000004,0.989
2126.3301326,0.989
2127.2658804000002,0.989
2128.2016282,0.9887
2129.137376,0.9882
2130.0731238000003,0.988
2131.0088716,0.988
2131.9446194,0.988
2132.8803672,0.988
2133.816115,0.988
2134.7518628000003,0.988
2135.6876106,0.988
2136.6233584,0.988
2137.5591062,0.988
2138.494854,0.988
2139.430602,0.988
2140.36635,0.988
2141.302098,0.988
2142.237846,0.988
2143.173594,0.988
2144.1093418,0.988
2145.0450895999998,0.988
2145.9808374,0.988
2146.9165851999996,0.988
2147.852333,0.988
2148.7880808,0.988
2149.7238286,0.988
2150.6595764,0.988
2151.5953242,0.988
2152.531072,0.988
2153.4668198000004,0.988
2154.4025676,0.988
2155.3383154000003,0.988
2156.2740632,0.988
2157.209811,0.988
2158.1455588000003,0.9883
2159.0813066,0.9888
2160.0170544000002,0.989
2160.9528022,0.989
2161.88855,0.989
2162.824298,0.989
2163.760046,0.989
2164.695794,0.989
2165.631542,0.989
2166.56729,0.989
2167.5030378,0.989
2168.4387856,0.989
2169.3745334,0.9895
2170.3102811999997,0.9905
2171.246029,0.991
2172.1817768,0.991
2173.1175246,0.991
2174.0532724,0.991
2174.9890201999997,0.991
2175.924768,0.991
2176.8605158,0.991
2177.7962635999997,0.991
2178.7320114,0.991
2179.6677591999996,0.991
2180.603507,0.991
2181.5392548,0.991
2182.4750026,0.991
2183.4107504,0.991
2184.3464982,0.991
2185.282246,0.991
2186.217994,0.991
2187.153742,0.991
2188.0894900000003,0.991
2189.025238,0.991
2189.960986,0.991
2190.8967338,0.991
2191.8324816,0.9906
2192.7682294,0.9896
2193.7039772,0.989
2194.639725,0.989
2195.5754728,0.9894
2196.5112206,0.9904
2197.4469684,0.991
2198.3827162,0.991
2199.318464,0.991
2200.2542118,0.991
2201.1899596,0.991
2202.1257074,0.991
2203.0614551999997,0.991
2203.997203,0.991
2204.9329508,0.991
2205.8686986,0.991
2206.8044464,0.991
2207.7401941999997,0.991
2208.675942,0.991
2209.6116899999997,0.991
2210.547438,0.991
2211.483186,0.991
2212.4189340000003,0.991
2213.354682,0.991
2214.2904298000003,0.991
2215.2261776,0.991
2216.1619254,0.991
2217.0976732,0.991
2218.033421,0.991
2218.9691688000003,0.991
2219.9049166,0.991
2220.8406644,0.991
2221.7764122,0.991
2222.71216,0.991
2223.6479078,0.991
2224.5836556,0.991
2225.5194034,0.991
2226.4551512,0.991
2227.390899,0.991
2228.3266468,0.991
2229.2623946,0.991
2230.1981424,0.991
2231.1338901999998,0.991
2232.069638,0.991
2233.005386,0.991
2233.9411339999997,0.991
2234.876882,0.991
2235.81263,0.991
2236.748378,0.991
2237.6841258,0.991
2238.6198736,0.991
2239.5556214,0.991
2240.4913692,0.991
2241.427117,0.991
2242.3628648000004,0.991
2243.2986126,0.991
2244.2343604000002,0.991
2245.1701082,0.991
2246.105856,0.991
2247.0416038000003,0.991
2247.9773516,0.991
2248.9130994,0.991
2249.8488472,0.991
2250.784595,0.991
2251.720343,0.991
2252.656091,0.991
2253.591839,0.991
2254.527587,0.991
2255.463335,0.991
2256.3990828,0.991
2257.3348306,0.991
2258.2705784,0.991
2259.2063261999997,0.991
2260.142074,0.991
2261.0778218,0.991
2262.0135695999998,0.991
2262.9493174,0.991
2263.8850651999996,0.991
2264.820813,0.991
2265.7565608,0.991
2266.6923086,0.991
2267.6280564,0.991
2268.5638042,0.991
2269.499552,0.991
2270.4352998000004,0.9908
2271.3710476,0.9898
2272.3067954000003,0.989
2273.2425432,0.989
2274.178291,0.989
2275.114039,0.989
2276.049787,0.989
2276.9855350000003,0.989
2277.921283,0.989
2278.857031,0.989
2279.7927788,0.989
2280.7285266,0.989
2281.6642744,0.989
2282.6000222,0.989
2283.53577,0.989
2284.4715178,0.989
2285.4072656,0.9889
2286.3430134,0.9884
2287.2787611999997,0.988
2288.214509,0.988
2289.1502568,0.988
2290.0860046,0.988
2291.0217524,0.988
2291.9575001999997,0.9875
2292.893248,0.987
2293.8289958,0.987
2294.7647435999997,0.987
2295.7004914,0.987
2296.6362391999996,0.987
2297.571987,0.987
2298.5077349999997,0.9869
2299.443483,0.9859
2300.379231,0.985
2301.314979,0.985
2302.250727,0.985
2303.1864748000003,0.985
2304.1222226,0.985
2305.0579704,0.985
2305.9937182,0.985
2306.929466,0.9845
2307.8652138,0.984
2308.8009616,0.983
2309.7367094,0.982
2310.6724572,0.982
2311.608205,0.982
2312.5439528,0.9815
2313.4797006,0.981
2314.4154484,0.981
2315.3511962,0.981
2316.286944,0.98
2317.2226918,0.979
2318.1584396,0.979
2319.0941874,0.979
2320.0299351999997,0.9785
2320.965683,0.978
2321.901431,0.977
2322.837179,0.976
2323.772927,0.9755
2324.7086750000003,0.975
2325.644423,0.975
2326.5801708000004,0.975
2327.5159186,0.9745
2328.4516664000002,0.974
2329.3874142,0.973
2330.323162,0.972
2331.2589098000003,0.972
2332.1946576,0.972
2333.1304054,0.972
2334.0661532,0.972
2335.001901,0.9715
2335.9376488000003,0.971
2336.8733966,0.971
2337.8091444,0.971
2338.7448922,0.97
2339.68064,0.9691
2340.6163878,0.969
2341.5521356,0.969
2342.4878834,0.969
2343.4236312,0.969
2344.359379,0.969
2345.295127,0.969
2346.2308749999997,0.9699
2347.166623,0.9709
2348.102371,0.971
2349.038119,0.971
2349.9738668,0.971
2350.9096145999997,0.971
2351.8453624,0.971
2352.7811101999996,0.971
2353.716858,0.9714
2354.6526058,0.9719
2355.5883536,0.972
2356.5241014,0.972
2357.4598492,0.9729
2358.395597,0.9739
2359.3313448000004,0.9749
2360.2670926,0.9759
2361.2028404000002,0.9769
2362.1385882,0.9779
2363.074336,0.9793
2364.010084,0.9808
2364.945832,0.981
2365.88158,0.981
2366.817328,0.9814
2367.753076,0.9819
2368.6888238,0.9828
2369.6245716,0.9838
2370.5603194,0.9844
2371.4960671999997,0.9849
2372.431815,0.9858
2373.3675628,0.9868
2374.3033106,0.9878
2375.2390584,0.9888
2376.1748061999997,0.989
2377.110554,0.989
2378.0463018,0.989
2378.9820495999998,0.989
2379.9177974,0.9898
2380.8535451999996,0.9908
2381.789293,0.9914
2382.7250408,0.9919
2383.6607886,0.992
2384.5965364,0.992
2385.5322842,0.992
2386.468032,0.992
2387.40378,0.9928
2388.339528,0.9938
2389.2752760000003,0.994
2390.211024,0.994
2391.146772,0.994
2392.0825198000002,0.994
2393.0182676,0.994
2393.9540154,0.994
2394.8897632,0.994
2395.825511,0.994
2396.7612588,0.994
2397.6970066,0.994
2398.6327544,0.994
2399.5685022,0.994
2400.50425,0.994
2401.4399978,0.994
2402.3757456,0.994
2403.3114934,0.994
2404.2472411999997,0.994
2405.182989,0.994
2406.1187368,0.994
2407.0544846,0.994
2407.9902324,0.994
2408.9259801999997,0.994
2409.861728,0.9933
2410.7974759999997,0.9923
2411.733224,0.992
2412.668972,0.992
2413.6047200000003,0.992
2414.540468,0.992
2415.4762158000003,0.9916
2416.4119636,0.9911
2417.3477114,0.991
2418.2834592,0.991
2419.219207,0.991
2420.1549548000003,0.991
2421.0907026,0.991
2422.0264504,0.991
2422.9621982,0.991
2423.897946,0.991
2424.8336938,0.9913
2425.7694416,0.9918
2426.7051894,0.992
2427.6409372,0.992
2428.576685,0.992
2429.5124328,0.992
2430.4481806,0.992
2431.3839284,0.992
2432.3196762,0.992
2433.255424,0.992
2434.191172,0.992
2435.1269199999997,0.992
2436.062668,0.992
2436.998416,0.992
2437.934164,0.992
2438.8699118,0.992
2439.8056596,0.992
2440.7414074,0.992
2441.6771552,0.992
2442.612903,0.992
2443.5486508000004,0.992
2444.4843986,0.992
2445.4201464000002,0.992
2446.3558942,0.992
2447.291642,0.992
2448.2273898000003,0.992
2449.1631376,0.992
2450.0988854,0.992
2451.0346332,0.992
2451.970381,0.992
2452.9061288000003,0.992
2453.8418766,0.992
2454.7776244,0.992
2455.7133722,0.992
2456.64912,0.992
2457.584868,0.992
2458.520616,0.992
2459.456364,0.992
2460.392112,0.9917
2461.32786,0.9912
2462.2636078,0.991
2463.1993555999998,0.991
2464.1351034,0.991
2465.0708511999997,0.991
2466.006599,0.991
2466.9423468,0.991
2467.8780945999997,0.991
2468.8138424,0.991
2469.7495901999996,0.9905
2470.685338,0.9895
2471.6210858,0.989
2472.5568336,0.989
2473.4925814,0.989
2474.4283292,0.989
2475.364077,0.989
2476.299825,0.989
2477.235573,0.9887
2478.1713210000003,0.9882
2479.107069,0.988
2480.042817,0.988
2480.9785648,0.988
2481.9143126,0.988
2482.8500604,0.988
2483.7858082,0.988
2484.721556,0.9878
2485.6573038,0.9873
2486.5930516,0.987
2487.5287994,0.987
2488.4645471999997,0.987
2489.400295,0.987
2490.3360428,0.9872
2491.2717906,0.9877
2492.2075384,0.9882
2493.1432861999997,0.9887
2494.079034,0.9895
2495.0147818,0.9905
2495.9505295999998,0.9905
2496.8862774,0.9895
2497.8220251999996,0.989
2498.757773,0.989
2499.6935209999997,0.989
2500.629269,0.989
2501.565017,0.989
2502.5007650000002,0.989
2503.436513,0.989
2504.3722608000003,0.989
2505.3080086,0.9888
2506.2437564,0.9883
2507.1795042,0.988
2508.115252,0.988
2509.0509998,0.988
2509.9867476,0.988
2510.9224954,0.988
2511.8582432,0.988
2512.793991,0.9882
2513.7297388,0.9887
2514.6654866,0.989
2515.6012344,0.989
2516.5369822,0.989
2517.47273,0.989
2518.4084778,0.9888
2519.3442256,0.9883
2520.2799734,0.988
2521.2157211999997,0.988
2522.151469,0.9882
2523.087217,0.9887
2524.022965,0.9894
2524.958713,0.9904
2525.8944610000003,0.9906
2526.830209,0.9896
2527.7659568000004,0.989
2528.7017046,0.989
2529.6374524000003,0.989
2530.5732002,0.989
2531.508948,0.989
2532.4446958000003,0.989
2533.3804436,0.989
2534.3161914,0.989
2535.2519392,0.989
2536.187687,0.989
2537.1234348000003,0.989
2538.0591826,0.989
2538.9949304,0.989
2539.9306782,0.989
2540.866426,0.989
2541.8021738,0.989
2542.7379216,0.9888
2543.6736694,0.9883
2544.6094172,0.988
2545.545165,0.988
2546.480913,0.9878
2547.4166609999997,0.9874
2548.352409,0.987
2549.288157,0.987
2550.223905,0.987
2551.1596528,0.987
2552.0954005999997,0.987
2553.0311484,0.987
2553.9668961999996,0.987
2554.902644,0.987
2555.8383918,0.987
2556.7741396,0.987
2557.7098874,0.987
2558.6456352,0.987
2559.581383,0.9871
2560.5171308000004,0.9876
2561.4528786,0.9881
2562.3886264000002,0.9886
2563.3243742,0.989
2564.260122,0.989
2565.1958698000003,0.989
2566.1316176,0.989
2567.0673654,0.9892
2568.0031132,0.9902
2568.938861,0.991
2569.874609,0.991
2570.810357,0.991
2571.746105,0.991
2572.681853,0.991
2573.617601,0.991
2574.5533488,0.991
2575.4890966,0.991
2576.4248444,0.9908
2577.3605921999997,0.9898
2578.29634,0.989
2579.2320878,0.989
2580.1678355999998,0.989
2581.1035834,0.989
2582.0393311999997,0.989
2582.975079,0.989
2583.9108268,0.9889
2584.8465745999997,0.9884
2585.7823224,0.988
2586.7180701999996,0.988
2587.653818,0.988
2588.5895659999996,0.988
2589.525314,0.9879
2590.461062,0.9874
2591.39681,0.9868
2592.332558,0.9853
2593.2683058000002,0.9838
2594.2040536,0.9823
2595.1398014,0.981
2596.0755492,0.981
2597.011297,0.981
2597.9470448,0.981
2598.8827926,0.9811
2599.8185404,0.9816
2600.7542882,0.9821
2601.690036,0.9831
2602.6257838,0.9841
2603.5615316,0.9846
2604.4972794,0.9851
2605.4330271999997,0.9861
2606.368775,0.987
2607.3045228,0.987
2608.2402706,0.987
2609.1760184,0.987
2610.1117661999997,0.987
2611.047514,0.987
2611.9832619999997,0.987
2612.91901,0.987
2613.854758,0.987
2614.7905060000003,0.9875
2615.726254,0.988
2616.6620018000003,0.9875
2617.5977496,0.9869
2618.5334974,0.9859
2619.4692452,0.9851
2620.404993,0.9866
2621.3407408000003,0.988
2622.2764886,0.988
2623.2122364,0.9879
2624.1479842,0.9864
2625.083732,0.985
2626.0194798,0.985
2626.9552276,0.985
2627.8909754,0.985
2628.8267232,0.985
2629.762471,0.9845
2630.6982188,0.984
2631.6339666,0.984
2632.5697144,0.984
2633.5054622,0.9855
2634.44121,0.987
2635.376958,0.987
2636.3127059999997,0.987
2637.248454,0.987
2638.184202,0.987
2639.11995,0.987
2640.0556978,0.987
2640.9914456,0.987
2641.9271934,0.987
2642.8629412,0.987
2643.798689,0.987
2644.7344368000004,0.986
2645.6701846,0.985
2646.6059324000003,0.9845
2647.5416802,0.984
2648.477428,0.984
2649.4131758000003,0.984
2650.3489236,0.984
2651.2846714,0.984
2652.2204192,0.984
2653.156167,0.984
2654.0919148000003,0.9859
2655.0276626,0.9879
2655.9634104,0.988
2656.8991582,0.988
2657.834906,0.9875
2658.770654,0.987
2659.706402,0.986
2660.64215,0.9851
2661.577898,0.985
2662.513646,0.985
2663.4493938,0.9845
2664.3851415999998,0.984
2665.3208894,0.9845
2666.2566371999997,0.985
2667.192385,0.9845
2668.1281328,0.984
2669.0638805999997,0.984
2669.9996284,0.984
2670.9353761999996,0.9831
2671.871124,0.9821
2672.8068718,0.9816
2673.7426196,0.9811
2674.6783674,0.9801
2675.6141152,0.9791
2676.549863,0.9785
2677.485611,0.9781
2678.421359,0.9771
2679.3571070000003,0.9761
2680.292855,0.976
2681.228603,0.976
2682.1643508,0.976
2683.1000986,0.976
2684.0358464,0.9799
2684.9715942,0.9844
2685.907342,0.9846
2686.8430898,0.9841
2687.7788376,0.984
2688.7145854,0.984
2689.6503331999997,0.9806
2690.586081,0.9766
2691.5218288,0.9731
2692.4575766,0.9696
2693.3933244,0.969
2694.3290721999997,0.969
2695.26482,0.9728
2696.2005678,0.9773
2697.1363155999998,0.9809
2698.0720634,0.9844
2699.0078111999997,0.9858
2699.943559,0.9868
2700.8793069999997,0.987
2701.815055,0.987
2702.750803,0.987
2703.6865510000002,0.987
2704.622299,0.9838
2705.5580468000003,0.9798
2706.4937946,0.9687
2707.4295424,0.9557
2708.3652902,0.953
2709.301038,0.953
2710.2367858000002,0.9616
2711.1725336,0.9725
2712.1082814,0.9777
2713.0440292,0.9813
2713.979777,0.984
2714.9155248,0.9865
2715.8512726,0.9874
2716.7870204,0.9879
2717.7227682,0.988
2718.658516,0.988
2719.5942638,0.9876
2720.5300116,0.9871
2721.4657594,0.9851
2722.4015071999997,0.9826
2723.337255,0.9768
2724.273003,0.9698
2725.208751,0.961
2726.144499,0.9515
2727.0802470000003,0.949
2728.015995,0.949
2728.9517428000004,0.9627
2729.8874906,0.9816
2730.8232384000003,0.987
2731.7589862,0.987
2732.694734,0.9863
2733.6304818000003,0.9853
2734.5662296,0.9839
2735.5019774,0.9824
2736.4377252,0.9816
2737.373473,0.9811
2738.3092208000003,0.9708
2739.2449686,0.9564
2740.1807164,0.9454
2741.1164642,0.9359
2742.052212,0.933
2742.9879598,0.933
2743.9237076,0.9486
2744.8594554,0.9715
2745.7952032,0.979
2746.730951,0.979
2747.666699,0.979
2748.6024469999998,0.979
2749.538195,0.9787
2750.473943,0.9782
2751.409691,0.9773
2752.3454388,0.9763
2753.2811865999997,0.9737
2754.2169344,0.9702
2755.1526821999996,0.9664
2756.08843,0.9624
2757.0241778,0.961
2757.9599256,0.961
2758.8956734,0.9635
2759.8314212,0.9675
2760.767169,0.9709
2761.7029168000004,0.9739
2762.6386646,0.9747
2763.5744124000003,0.9742
2764.5101602,0.9691
2765.445908,0.9611
2766.3816558000003,0.9565
2767.3174036,0.954
2768.2531514,0.9524
2769.1888992,0.9514
2770.124647,0.9522
2771.060395,0.9542
2771.996143,0.9553
2772.931891,0.9558
2773.867639,0.9596
2774.803387,0.9655
2775.7391348,0.9692
2776.6748826,0.9712
2777.6106304,0.9732
2778.5463781999997,0.9751
2779.482126,0.9749
2780.4178738,0.9729
2781.3536215999998,0.9703
2782.2893694,0.9673
2783.2251171999997,0.9638
2784.160865,0.9598
2785.0966128,0.9553
2786.0323605999997,0.9503
2786.9681084,0.9475
2787.9038561999996,0.9464
2788.839604,0.9466
2789.7753519999997,0.9475
2790.7111,0.9494
2791.646848,0.9519
2792.582596,0.9554
2793.518344,0.9599
2794.4540918000002,0.9628
2795.3898396,0.9643
2796.3255874,0.965
2797.2613352,0.965
2798.197083,0.9617
2799.1328308,0.9552
2800.0685786,0.952
2801.0043264,0.952
2801.9400742,0.9555
2802.875822,0.9625
2803.8115698,0.966
2804.7473176,0.966
2805.6830654,0.966
2806.6188131999997,0.966
2807.554561,0.966
2808.4903088,0.966
2809.4260566,0.9648
2810.3618044,0.9623
2811.2975521999997,0.9605
2812.2333,0.9595
2813.1690479999997,0.9571
2814.104796,0.9531
2815.040544,0.945
2815.9762920000003,0.932
2816.91204,0.9223
2817.8477878000003,0.9163
2818.7835356,0.9123
2819.7192834,0.9108
2820.6550312,0.9098
2821.590779,0.9093
2822.5265268000003,0.9096
2823.4622746,0.9111
2824.3980224,0.9129
2825.3337702,0.9149
2826.269518,0.918
2827.2052658000002,0.9224
2828.1410136,0.9254
2829.0767614,0.9264
2830.0125092,0.9295
2830.948257,0.9355
2831.8840048,0.9425
2832.8197526,0.951
2833.7555004,0.9564
2834.6912482,0.9574
2835.626996,0.96
2836.562744,0.965
2837.4984919999997,0.9694
2838.43424,0.9728
2839.369988,0.975
2840.305736,0.975
2841.2414838,0.9748
2842.1772316,0.9743
2843.1129794,0.9736
2844.0487272,0.9726
2844.984475,0.972
2845.9202228000004,0.972
2846.8559706,0.9718
2847.7917184000003,0.9713
2848.7274662,0.9706
2849.663214,0.9696
2850.5989618000003,0.9667
2851.5347096,0.9602
2852.4704574,0.9543
2853.4062052,0.9493
2854.341953,0.9453
2855.2777008000003,0.9433
2856.2134486,0.9415
2857.1491964,0.94
2858.0849442,0.939
2859.020692,0.939
2859.95644,0.9385
2860.892188,0.937
2861.827936,0.931
2862.763684,0.9149
2863.699432,0.8981
2864.6351798,0.8797
2865.5709276,0.867
2866.5066754,0.867
2867.4424231999997,0.8784
2868.378171,0.9158
2869.3139188,0.943
2870.2496665999997,0.9465
2871.1854144,0.949
2872.1211621999996,0.949
2873.05691,0.9298
2873.9926578,0.8616
2874.9284056,0.8089
2875.8641534,0.7974
2876.7999012,0.792
2877.735649,0.8035
2878.6713968000004,0.8311
2879.6071446,0.9053
2880.5428924000003,0.961
2881.4786402,0.961
2882.414388,0.9235
2883.350136,0.7806
2884.285884,0.6744
2885.221632,0.6759
2886.15738,0.7116
2887.093128,0.852
2888.0288758,0.9598
2888.9646236,0.9633
2889.9003714,0.9647
2890.8361191999998,0.9593
2891.771867,0.942
2892.7076148,0.8838
2893.6433626,0.8215
2894.5791104,0.7448
2895.5148581999997,0.6773
2896.450606,0.6449
2897.3863538,0.619
2898.3221015999998,0.619
2899.2578494,0.6472
2900.1935971999997,0.7947
2901.129345,0.912
2902.0650929999997,0.912
2903.000841,0.8774
2903.936589,0.7016
2904.8723370000002,0.559
2905.808085,0.559
2906.7438328000003,0.5676
2907.6795806,0.6149
2908.6153284,0.6775
2909.5510762,0.8135
2910.486824,0.9272
2911.4225718000002,0.9287
2912.3583196,0.9123
2913.2940674,0.7992
2914.2298152,0.6943
2915.165563,0.636
2916.1013108,0.5778
2917.0370586,0.5195
2917.9728064,0.4679
2918.9085542,0.4593
2919.844302,0.452
2920.7800498,0.452
2921.7157976,0.485
2922.6515454,0.7245
2923.5872931999997,0.919
2924.523041,0.8115
2925.458789,0.7039
2926.394537,0.5963
2927.330285,0.4974
2928.2660330000003,0.466
2929.201781,0.4631
2930.1375288000004,0.6996
2931.0732766,0.9135
2932.0090244000003,0.9185
2932.9447722,0.9115
2933.88052,0.784
2934.8162678000003,0.6565
2935.7520156,0.5285
2936.6877634,0.4174
2937.6235112,0.517
2938.559259,0.6094
2939.4950068000003,0.6259
2940.4307546,0.6522
2941.3665024,0.7941
2942.3022502,0.9267
2943.237998,0.9361
2944.1737458000002,0.9367
2945.1094936,0.8058
2946.0452414,0.6748
2946.9809892,0.5438
2947.916737,0.419
2948.852485,0.419
2949.7882329999998,0.4284
2950.723981,0.669
2951.659729,0.9029
2952.595477,0.9328
2953.5312248,0.9574
2954.4669725999997,0.7632
2955.4027204,0.5724
2956.3384681999996,0.5955
2957.274216,0.6167
2958.2099638,0.5729
2959.1457116,0.5291
2960.0814594,0.4842
2961.0172072,0.4432
2961.952955,0.6822
2962.8887028000004,0.9197
2963.8244506,0.8694
2964.7601984000003,0.8191
2965.6959462,0.7971
2966.631694,0.7752
2967.5674418000003,0.7124
2968.5031896,0.6492
2969.4389374,0.5854
2970.3746852,0.5217
2971.310433,0.6533
2972.246181,0.7903
2973.181929,0.8662
2974.117677,0.9399
2975.053425,0.943
2975.989173,0.943
2976.9249208,0.8396
2977.8606686,0.733
2978.7964164,0.625
2979.7321641999997,0.5169
2980.667912,0.7135
2981.6036598,0.9247
2982.5394076,0.9454
2983.4751554,0.9554
2984.4109031999997,0.834
2985.346651,0.704
2986.2823988,0.6653
2987.2181465999997,0.6335
2988.1538944,0.6011
2989.0896421999996,0.5688
2990.02539,0.566
2990.9611378,0.566
2991.8968856,0.7417
2992.8326334,0.9354
2993.7683812,0.955
2994.704129,0.955
2995.639877,0.9123
2996.575625,0.8655
2997.5113730000003,0.8389
2998.447121,0.8145
2999.382869,0.7915
3000.3186168,0.7685
3001.2543646,0.6792
3002.1901124,0.5816
3003.1258602,0.5599
3004.061608,0.5485
3004.9973558,0.537
3005.9331036,0.5255
3006.8688514,0.5046
3007.8045991999998,0.4822
3008.740347,0.4158
3009.6760948,0.3421
3010.6118426,0.2858
3011.5475904,0.2325
3012.4833381999997,0.2223
3013.419086,0.2203
3014.3548339999998,0.2991
3015.290582,0.3917
3016.22633,0.4835
3017.1620780000003,0.5751
3018.097826,0.6267
3019.0335738000003,0.6705
3019.9693216,0.714
3020.9050694000002,0.7573
3021.8408172,0.7695
3022.776565,0.775
3023.7123128000003,0.8421
3024.6480606,0.9233
3025.5838084,0.9366
3026.5195562,0.9336
3027.455304,0.8579
3028.3910518000002,0.7637
3029.3267996,0.744
3030.2625474,0.744
3031.1982952,0.8232
3032.134043,0.9244
3033.0697908,0.9216
3034.0055386,0.8922
3034.9412864,0.8738
3035.8770342,0.8584
3036.812782,0.8115
3037.74853,0.7557
3038.6842779999997,0.7418
3039.620026,0.7404
3040.555774,0.8249
3041.491522,0.9359
3042.4272698,0.963
3043.3630176,0.963
3044.2987654,0.8449
3045.2345132,0.687
3046.170261,0.646
3047.1060088000004,0.646
3048.0417566,0.6482
3048.9775044000003,0.6512
3049.9132522,0.6567
3050.849,0.6633
3051.7847478000003,0.6808
3052.7204956,0.7022
3053.6562434,0.6742
3054.5919912,0.6279
3055.527739,0.6139
3056.4634868000003,0.6124
3057.3992346,0.5957
3058.3349824,0.5727
3059.2707302,0.5491
3060.206478,0.5252
3061.142226,0.6076
3062.077974,0.7361
3063.013722,0.8244
3063.94947,0.8946
3064.885218,0.8104
3065.8209658,0.654
3066.7567136,0.5845
3067.6924614,0.5572
3068.6282091999997,0.5292
3069.563957,0.5011
3070.4997048,0.5406
3071.4354525999997,0.6124
3072.3712004,0.6834
3073.3069481999996,0.7541
3074.242696,0.8239
3075.1784438,0.8931
3076.1141916,0.917
3077.0499394,0.917
3077.9856872,0.8365
3078.921435,0.712
3079.8571828000004,0.6447
3080.7929306,0.6099
3081.7286784000003,0.5863
3082.6644262,0.5694
3083.600174,0.5521
3084.535922,0.5347
3085.47167,0.5075
3086.4074180000002,0.4741
3087.343166,0.461
3088.278914,0.461
3089.2146618,0.4938
3090.1504096,0.5465
3091.0861574,0.5768
3092.0219051999998,0.5927
3092.957653,0.6147
3093.8934008,0.6406
3094.8291486,0.6941
3095.7648964,0.7663
3096.7006441999997,0.8344
3097.636392,0.8997
3098.5721398,0.8466
3099.5078876,0.7081
3100.4436354,0.6319
3101.3793831999997,0.602
3102.315131,0.5716
3103.2508788,0.5407
3104.1866265999997,0.6388
3105.1223744,0.8395
3106.0581221999996,0.9109
3106.99387,0.8762
3107.9296179999997,0.8406
3108.865366,0.8042
3109.801114,0.7475
3110.736862,0.6742
3111.67261,0.6285
3112.6083578000002,0.6056
3113.5441056,0.5824
3114.4798534,0.559
3115.4156012,0.6554
3116.351349,0.8581
3117.2870968,0.955
3118.2228446,0.955
3119.1585924,0.8615
3120.0943402,0.6798
3121.030088,0.5897
3121.9658358,0.5893
3122.9015836,0.6168
3123.8373314,0.6726
3124.7730791999998,0.7647
3125.708827,0.8946
3126.644575,0.9136
3127.580323,0.8234
3128.516071,0.7449
3129.4518190000003,0.6782
3130.387567,0.644
3131.3233148000004,0.644
3132.2590626,0.7191
3133.1948104000003,0.8755
3134.1305582,0.9596
3135.066306,0.9631
3136.0020538000003,0.9664
3136.9378016,0.9694
3137.8735494000002,0.9271
3138.8092972,0.831
3139.745045,0.7827
3140.6807928000003,0.7931
3141.6165406,0.8378
3142.5522884,0.926
3143.4880362,0.9767
3144.423784,0.9782
3145.3595318000002,0.9418
3146.2952796,0.8581
3147.2310274,0.7927
3148.1667752,0.7509
3149.102523,0.727
3150.038271,0.727
3150.9740189999998,0.7799
3151.909767,0.9054
3152.845515,0.9809
3153.781263,0.9853
3154.7170108,0.9492
3155.6527585999997,0.8536
3156.5885064,0.796
3157.5242541999996,0.796
3158.460002,0.8325
3159.3957498,0.9261
3160.3314976,0.985
3161.2672454,0.9874
3162.2029932,0.989
3163.138741,0.989
3164.0744888000004,0.9886
3165.0102366,0.9876
3165.9459844000003,0.9673
3166.8817322,0.9156
3167.81748,0.8824
3168.7532278000003,0.881
3169.6889756,0.8878
3170.6247234,0.9092
3171.5604712,0.9306
3172.496219,0.952
3173.431967,0.9676
3174.367715,0.972
3175.303463,0.9755
3176.239211,0.977
3177.174959,0.9782
3178.1107068,0.9787
3179.0464546,0.9793
3179.9822024,0.9803
3180.9179501999997,0.9815
3181.853698,0.983
3182.7894458,0.984
3183.7251936,0.984
3184.6609414,0.984
3185.5966891999997,0.984
3186.532437,0.9845
3187.4681848,0.986
3188.4039325999997,0.9873
3189.3396804,0.9883
3190.2754281999996,0.989
3191.211176,0.989
3192.1469238,0.9893
3193.0826716,0.9903
3194.0184194,0.991
3194.9541672,0.991
3195.889915,0.9911
3196.825663,0.9916
3197.761411,0.992
3198.6971590000003,0.992
3199.632907,0.992
3200.568655,0.992
3201.5044028,0.9924
3202.4401506,0.9939
3203.3758984,0.995
3204.3116462,0.995
3205.247394,0.9953
3206.1831418,0.9962
3207.1188896,0.997
3208.0546374,0.997
3208.9903851999998,0.997
3209.926133,0.997
3210.8618808,0.997
3211.7976286,0.997
3212.7333764,0.997
3213.6691241999997,0.997
3214.604872,0.997
3215.5406198,0.997
3216.4763676,0.997
3217.4121154,0.997
3218.3478631999997,0.997
3219.283611,0.997
3220.2193589999997,0.9971
3221.155107,0.9976
3222.090855,0.998
3223.0266030000003,0.998
3223.962351,0.998
3224.8980988000003,0.998
3225.8338466,0.998
3226.7695944,0.998
3227.7053422,0.998
3228.64109,0.998
3229.5768378000002,0.998
3230.5125856,0.998
3231.4483334,0.998
3232.3840812,0.998
3233.319829,0.998
3234.2555768,0.998
3235.1913246,0.998
3236.1270724,0.998
3237.0628202,0.998
3237.998568,0.998
3238.934316,0.998
3239.8700639999997,0.998
3240.805812,0.998
3241.74156,0.998
3242.677308,0.998
3243.6130558,0.998
3244.5488036,0.998
3245.4845514,0.998
3246.4202992,0.998
3247.356047,0.998
3248.2917948000004,0.998
3249.2275426,0.998
3250.1632904000003,0.998
3251.0990382,0.998
3252.034786,0.998
3252.9705338000003,0.998
3253.9062816,0.998
3254.8420294000002,0.998
3255.7777772,0.998
3256.713525,0.998
3257.6492728000003,0.998
3258.5850206,0.998
3259.5207684,0.998
3260.4565162,0.998
3261.392264,0.998
3262.328012,0.998
3263.26376,0.998
3264.199508,0.998
3265.135256,0.998
3266.071004,0.998
3267.0067518,0.998
3267.9424996,0.998
3268.8782474,0.998
3269.8139951999997,0.998
3270.749743,0.998
3271.6854908,0.998
3272.6212385999997,0.998
3273.5569864,0.998
3274.4927341999996,0.998
3275.428482,0.998
3276.3642298,0.998
3277.2999776,0.998
3278.2357254,0.998
3279.1714732,0.998
3280.107221,0.998
3281.0429688000004,0.998
3281.9787166,0.998
3282.9144644000003,0.998
3283.8502122,0.998
3284.78596,0.998
3285.721708,0.998
3286.657456,0.998
3287.5932040000002,0.998
3288.528952,0.998
3289.4647,0.998
3290.4004478,0.998
3291.3361956,0.998
3292.2719434,0.998
3293.2076911999998,0.998
3294.143439,0.998
3295.0791868,0.998
3296.0149346,0.998
3296.9506824,0.998
3297.8864301999997,0.998
3298.822178,0.998
3299.7579258,0.998
3300.6936736,0.998
3301.6294214,0.998
3302.5651691999997,0.998
3303.500917,0.998
3304.4366648,0.998
3305.3724125999997,0.998
3306.3081604,0.998
3307.2439081999996,0.998
3308.179656,0.998
3309.1154039999997,0.998
3310.051152,0.998
3310.9869,0.998
3311.922648,0.998
3312.858396,0.998
3313.7941438000003,0.998
3314.7298916,0.998
3315.6656394,0.998
3316.6013872,0.998
3317.537135,0.998
3318.4728828,0.998
3319.4086306,0.998
3320.3443784,0.998
3321.2801262,0.998
3322.215874,0.998
3323.1516218,0.998
3324.0873696,0.998
3325.0231174,0.998
3325.9588651999998,0.998
3326.894613,0.998
3327.830361,0.998
3328.766109,0.998
3329.701857,0.998
3330.6376050000003,0.998
3331.573353,0.998
3332.5091008000004,0.998
3333.4448486,0.998
3334.3805964000003,0.998
3335.3163442,0.998
3336.252092,0.998
3337.1878398000003,0.998
3338.1235876,0.998
3339.0593354000002,0.998
3339.9950832,0.998
3340.930831,0.998
3341.8665788000003,0.998
3342.8023266,0.998
3343.7380744,0.998
3344.6738222,0.9988
3345.60957,0.9998
3346.5453178000002,1.0
3347.4810656,1.0
3348.4168134,1.0
3349.3525612,1.0
3350.288309,1.0
3351.224057,1.0
3352.159805,1.0
3353.095553,1.0
3354.031301,1.0
3354.967049,1.0
3355.9027968,1.0
3356.8385445999998,1.0
3357.7742924,1.0
3358.7100401999996,1.0
3359.645788,1.0
3360.5815358,1.0
3361.5172836,1.0
3362.4530314,1.0
3363.3887792,1.0
3364.324527,1.0
3365.2602748000004,1.0
3366.1960226,1.0
3367.1317704000003,1.0
3368.0675182,1.0
3369.003266,1.0
3369.9390138000003,1.0
3370.8747616,1.0
3371.8105094000002,1.0
3372.7462572,0.9993
3373.682005,0.9983
3374.617753,0.998
3375.553501,0.998
3376.489249,0.998
3377.424997,0.998
3378.360745,0.998
3379.2964928,0.998
3380.2322406,0.998
3381.1679884,0.998
3382.1037361999997,0.998
3383.039484,0.998
3383.9752318,0.9977
3384.9109796,0.9972
3385.8467274,0.997
3386.7824751999997,0.997
3387.718223,0.997
3388.6539708,0.997
3389.5897185999997,0.9963
3390.5254664,0.9953
3391.4612141999996,0.995
3392.396962,0.995
3393.3327098,0.995
3394.2684576,0.995
3395.2042054,0.995
3396.1399532,0.995
3397.075701,0.995
3398.011449,0.995
3398.947197,0.995
3399.8829450000003,0.995
3400.818693,0.9956
3401.754441,0.9966
3402.6901888,0.997
3403.6259366,0.997
3404.5616844,0.997
3405.4974322,0.997
3406.43318,0.9973
3407.3689278,0.9978
3408.3046756,0.998
3409.2404234,0.998
3410.1761711999998,0.9977
3411.111919,0.9972
3412.0476668,0.9973
3412.9834146,0.9978
3413.9191624,0.998
3414.8549101999997,0.998
3415.790658,0.998
3416.7264058,0.998
3417.6621536,0.998
3418.5979014,0.998
3419.5336491999997,0.998
3420.469397,0.998
3421.4051449999997,0.998
3422.340893,0.998
3423.276641,0.998
3424.2123890000003,0.998
3425.148137,0.998
3426.0838848000003,0.998
3427.0196326,0.998
3427.9553804,0.998
3428.8911282,0.998
3429.826876,0.998
3430.7626238000003,0.998
3431.6983716,0.998
3432.6341194,0.998
3433.5698672,0.998
3434.505615,0.998
3435.4413628,0.998
3436.3771106,0.998
3437.3128584,0.998
3438.2486062,0.998
3439.184354,0.998
3440.120102,0.998
3441.0558499999997,0.998
3441.991598,0.998
3442.927346,0.998
3443.863094,0.998
3444.7988418,0.998
3445.7345896,0.998
3446.6703374,0.998
3447.6060852,0.998
3448.541833,0.998
3449.4775808000004,0.998
3450.4133286,0.998
3451.3490764000003,0.998
3452.2848242,0.998
3453.220572,0.998
3454.1563198000003,0.998
3455.0920676,0.998
3456.0278154000002,0.998
3456.9635632,0.998
3457.899311,0.998
3458.8350588000003,0.9985
3459.7708066,0.9995
3460.7065544,1.0
3461.6423022,1.0
3462.57805,1.0
3463.513798,1.0
3464.449546,1.0
3465.385294,1.0
3466.321042,1.0
3467.25679,1.0
3468.1925378,1.0
3469.1282856,1.0
3470.0640334,1.0
3470.9997811999997,1.0
3471.935529,1.0
3472.8712768,1.0
3473.8070245999997,1.0
3474.7427724,1.0
3475.6785201999996,1.0002
3476.614268,1.0007
3477.5500158,1.001
3478.4857636,1.001
3479.4215114,1.001
3480.3572592,1.001
3481.293007,1.001
3482.2287548000004,1.001
3483.1645026,1.001
3484.1002504000003,1.001
3485.0359982,1.001
3485.971746,1.001
3486.907494,1.001
3487.843242,1.001
3488.7789900000002,1.001
3489.714738,1.001
3490.650486,1.001
3491.5862338,1.001
3492.5219816,1.001
3493.4577294,1.001
3494.3934772,1.001
3495.329225,1.001
3496.2649728,1.001
3497.2007206,1.001
3498.1364684,1.001
3499.0722161999997,1.001
3500.007964,1.001
3500.9437118,1.001
3501.8794596,1.001
3502.8152074,1.001
3503.7509551999997,1.001
3504.686703,1.001
3505.6224508,1.0008
3506.5581985999997,1.0003
3507.4939464,1.0
3508.4296941999996,1.0
3509.365442,1.0
3510.3011899999997,1.0
3511.236938,1.0
3512.172686,1.0
3513.108434,1.0
3514.044182,1.0
3514.9799298000003,1.0
3515.9156776,1.0
3516.8514254,1.0
3517.7871732,1.0
3518.722921,1.0
3519.6586688,1.0
3520.5944166,1.0
3521.5301644,1.0
3522.4659122,1.0
3523.40166,1.0
3524.3374078,1.0
3525.2731556,1.0
3526.2089034,1.0
3527.1446511999998,1.0
3528.080399,1.0
3529.0161468,1.0
3529.9518946,1.0
3530.8876424,1.0
3531.8233901999997,1.0
3532.759138,1.0
3533.6948859999998,1.0
3534.630634,1.0
3535.566382,1.0
3536.5021300000003,1.0
3537.437878,1.0
3538.3736258000004,1.0
3539.3093736,1.0
3540.2451214000002,1.0
3541.1808692,1.0
3542.116617,1.0
3543.0523648000003,1.0
3543.9881126,1.0
3544.9238604,1.0
3545.8596082,1.0
3546.795356,1.0
3547.7311038000003,1.0
3548.6668516,1.0
3549.6025994,1.0
3550.5383472,0.9998
3551.474095,0.9988
3552.409843,0.998
3553.345591,0.998
3554.281339,0.998
3555.217087,0.998
3556.152835,0.998
3557.0885828,0.998
3558.0243305999998,0.998
3558.9600784,0.998
3559.8958261999996,0.998
3560.831574,0.998
3561.7673218,0.998
3562.7030696,0.998
3563.6388174,0.998
3564.5745652,0.998
3565.510313,0.998
3566.4460608000004,0.998
3567.3818086,0.998
3568.3175564000003,0.998
3569.2533042,0.998
3570.189052,0.998
3571.1247998000003,0.998
3572.0605476,0.998
3572.9962954000002,0.998
3573.9320432,0.998
3574.867791,0.998
3575.803539,0.998
3576.739287,0.998
3577.675035,0.998
3578.610783,0.998
3579.546531,0.998
3580.4822788,0.998
3581.4180266,0.998
3582.3537744,0.998
3583.2895221999997,0.998
3584.22527,0.998
3585.1610178,0.998
3586.0967656,0.998
3587.0325134,0.998
3587.9682611999997,0.998
3588.904009,0.998
3589.8397568,0.998
3590.7755045999997,0.998
3591.7112524,0.998
3592.6470001999996,0.998
3593.582748,0.998
3594.5184958,0.998
3595.4542436,0.998
3596.3899914,0.998
3597.3257392,0.998
3598.261487,0.998
3599.197235,0.998
3600.132983,0.998
3601.0687310000003,0.998
3602.004479,0.998
3602.940227,0.998
3603.8759748,0.998
3604.8117226,0.998
3605.7474704,0.998
3606.6832182,0.998
3607.618966,0.998
3608.5547138,0.998
3609.4904616,0.998
3610.4262094,0.998
3611.3619572,0.998
3612.297705,0.998
3613.2334528,0.998
3614.1692006,0.998
3615.1049484,0.998
3616.0406961999997,0.998
3616.976444,0.998
3617.9121918,0.998
3618.8479396,0.998
3619.7836874,0.998
3620.7194351999997,0.998
3621.655183,0.998
3622.5909309999997,0.998
3623.526679,0.998
3624.462427,0.998
3625.3981750000003,0.998
3626.333923,0.998
3627.2696708000003,0.998
3628.2054186,0.998
3629.1411664,0.998
3630.0769142,0.998
3631.012662,0.998
3631.9484098000003,0.9989
3632.8841576,0.9999
3633.8199054,0.9991
3634.7556532,0.9981
3635.691401,0.998
3636.6271488,0.998
3637.5628966,0.998
3638.4986444,0.998
3639.4343922,0.998
3640.37014,0.998
3641.3058878,0.9989
3642.2416356,0.9999
3643.1773834,1.0
3644.1131311999998,1.0
3645.048879,1.0
3645.984627,1.0
3646.9203749999997,1.0
3647.856123,1.0
3648.791871,0.9991
3649.727619,0.9981
3650.6633668,0.998
3651.5991146,0.998
3652.5348624,0.998
3653.4706102,0.998
3654.406358,0.998
3655.3421058000004,0.998
3656.2778536,0.998
3657.2136014000002,0.998
3658.1493492,0.998
3659.085097,0.998
3660.0208448000003,0.998
3660.9565926,0.998
3661.8923404,0.998
3662.8280882,0.998
3663.763836,0.998
3664.699584,0.998
3665.635332,0.998
3666.57108,0.998
3667.506828,0.998
3668.442576,0.998
3669.3783238,0.9976
3670.3140716,0.9971
3671.2498194,0.9962
3672.1855671999997,0.9952
3673.121315,0.995
3674.0570628,0.995
3674.9928105999998,0.995
3675.9285584,0.995
3676.8643061999996,0.995
3677.800054,0.995
3678.7358018,0.9958
3679.6715496,0.9968
3680.6072974,0.997
3681.5430452,0.997
3682.478793,0.9974
3683.4145408000004,0.9979
3684.3502886,0.998
3685.2860364000003,0.998
3686.2217842,0.998
3687.157532,0.998
3688.09328,0.998
3689.029028,0.998
3689.9647760000003,0.9988
3690.900524,0.9997
3691.836272,1.0
3692.7720198,1.0
3693.7077676,0.9993
3694.6435154,0.9983
3695.5792632,0.998
3696.515011,0.998
3697.4507588,0.998
3698.3865066,0.998
3699.3222544,0.998
3700.2580021999997,0.998
3701.19375,0.998
3702.1294978,0.998
3703.0652456,0.9987
3704.0009934,0.9997
3704.9367411999997,1.0
3705.872489,1.0
3706.8082368,1.0003
3707.7439845999997,1.0009
3708.6797324,1.001
3709.6154801999996,1.001
3710.551228,1.0007
3711.4869759999997,1.0002
3712.422724,0.9993
3713.358472,0.9983
3714.29422,0.998
3715.229968,0.998
3716.1657158000003,0.998
3717.1014636,0.998
3718.0372114,0.998
3718.9729592,0.998
3719.908707,0.9986
3720.8444548,0.9996
3721.7802026,1.0
3722.7159504,1.0
3723.6516982,1.0
3724.587446,1.0
3725.5231938,0.9994
3726.4589416,0.9984
3727.3946894,0.998
3728.3304372,0.998
3729.266185,0.998
3730.2019328,0.998
3731.1376806,0.9986
3732.0734284,0.9996
3733.0091761999997,1.0
3733.944924,1.0
3734.880672,1.0
3735.81642,1.0
3736.752168,1.0
3737.6879160000003,1.0
3738.623664,1.0
3739.5594118000004,1.0
3740.4951596,0.9994
3741.4309074000003,0.9984
3742.3666552,0.9986
3743.302403,0.9996
3744.2381508000003,1.0003
3745.1738986,1.0008
3746.1096464,1.001
3747.0453942,1.001
3747.981142,1.001
3748.9168898000003,1.001
3749.8526376,1.0013
3750.7883854,1.0018
3751.7241332,1.002
3752.659881,1.002
3753.5956288,1.002
3754.5313766,1.002
3755.4671244,1.002
3756.4028722,1.002
3757.33862,1.002
3758.274368,1.002
3759.2101159999997,1.002
3760.145864,1.002
3761.081612,1.002
3762.01736,1.002
3762.9531078,1.002
3763.8888555999997,1.002
3764.8246034,1.002
3765.7603511999996,1.002
3766.696099,1.002
3767.6318468,1.002
3768.5675946,1.002
3769.5033424,1.002
3770.4390902,1.0017
3771.374838,1.0013
3772.3105858000004,1.001
3773.2463336,1.001
3774.1820814000002,1.001
3775.1178292,1.001
3776.053577,1.001
3776.989325,1.001
3777.925073,1.001
3778.860821,1.001
3779.796569,1.001
3780.732317,1.001
3781.6680648,1.001
3782.6038126,1.001
3783.5395604,1.001
3784.4753081999997,1.001
3785.411056,1.0008
3786.3468038,1.0003
3787.2825516,1.0
3788.2182994,1.0
3789.1540471999997,1.0
3790.089795,1.0
3791.0255428,0.9996
3791.9612905999998,0.9986
3792.8970384,0.998
3793.8327861999996,0.998
3794.768534,0.9978
3795.7042818,0.9973
3796.6400296,0.997
3797.5757774,0.997
3798.5115252,0.997
3799.447273,0.997
3800.3836365,0.997
3801.32,0.997
