457.865,0.961
458.8013322,0.961
459.73766439999997,0.961
460.6739966,0.961
461.6103288,0.961
462.546661,0.961
463.4829934,0.961
464.41932579999997,0.962
465.3556582,0.962
466.29199059999996,0.962
467.228323,0.962
468.16465519999997,0.962
469.1009874,0.962
470.0373196,0.962
470.9736518,0.962
471.909984,0.963
472.84631640000003,0.963
473.7826488,0.963
474.71898120000003,0.963
475.6553136,0.963
476.591646,0.963
477.5279782,0.962
478.4643104,0.962
479.4006426,0.962
480.3369748,0.962
481.273307,0.962
482.2096394,0.962
483.1459718,0.962
484.0823042,0.962
485.0186366,0.962
485.954969,0.961
486.8913012,0.961
487.8276334,0.961
488.7639656,0.961
489.70029780000004,0.962
490.63663,0.962
491.5729624,0.962
492.5092948,0.962
493.4456272,0.962
494.3819596,0.961
495.318292,0.961
496.25462419999997,0.961
497.1909564,0.962
498.1272886,0.962
499.0636208,0.962
499.999953,0.962
500.93628540000003,0.962
501.8726178,0.961
502.8089502,0.961
503.7452826,0.961
504.681615,0.959
505.6179472,0.959
506.5542794,0.959
507.4906116,0.959
508.4269438,0.959
509.363276,0.959
510.2996084,0.959
511.2359408,0.959
512.1722732,0.958
513.1086056,0.958
514.044938,0.958
514.9812702,0.958
515.9176024,0.956
516.8539346,0.956
517.7902667999999,0.956
518.726599,0.956
519.6629313999999,0.956
520.5992638,0.956
521.5355962,0.956
522.4719286000001,0.958
523.408261,0.958
524.3445932000001,0.958
525.2809254,0.958
526.2172576,0.958
527.1535898,0.956
528.089922,0.956
529.0262544,0.956
529.9625867999999,0.956
530.8989192,0.956
531.8352516,0.956
532.771584,0.956
533.7079162,0.956
534.6442484,0.956
535.5805806,0.956
536.5169128,0.955
537.453245,0.955
538.3895774,0.955
539.3259098,0.955
540.2622422000001,0.955
541.1985746,0.955
542.134907,0.956
543.0712392,0.956
544.0075714,0.955
544.9439036,0.955
545.8802357999999,0.955
546.816568,0.955
547.7529002,0.955
548.6892324,0.956
549.6255646,0.956
550.5618968,0.956
551.498229,0.958
552.4345614,0.956
553.3708938,0.956
554.3072262000001,0.959
555.2435586,0.959
556.179891,0.959
557.1162232,0.959
558.0525554,0.961
558.9888876,0.961
559.9252197999999,0.961
560.861552,0.961
561.7978843999999,0.961
562.7342168,0.962
563.6705492,0.962
564.6068816000001,0.962
565.543214,0.963
566.4795462000001,0.965
567.4158784,0.965
568.3522106,0.965
569.2885428,0.965
570.224875,0.965
571.1612074,0.965
572.0975397999999,0.966
573.0338722,0.966
573.9702046,0.966
574.906537,0.966
575.8428692,0.966
576.7792014,0.966
577.7155336,0.968
578.6518658,0.968
579.588198,0.966
580.5245304,0.968
581.4608628,0.969
582.3971952,0.969
583.3335276,0.972
584.26986,0.972
585.2061922,0.974
586.1425244,0.974
587.0788566,0.971
588.0151887999999,0.971
588.951521,0.971
589.8878533999999,0.971
590.8241858,0.971
591.7605182,0.971
592.6968506000001,0.972
593.633183,0.972
594.5695152000001,0.974
595.5058474,0.974
596.4421796,0.974
597.3785118,0.974
598.314844,0.974
599.2511764,0.974
600.1875087999999,0.975
601.1238412,0.975
602.0601736,0.976
602.996506,0.978
603.9328382,0.976
604.8691704,0.976
605.8055026,0.976
606.7418348,0.976
607.678167,0.976
608.6144994,0.976
609.5508318,0.976
610.4871642,0.976
611.4234966,0.976
612.359829,0.978
613.2961612,0.978
614.2324934,0.978
615.1688256,0.978
616.1051577999999,0.978
617.04149,0.978
617.9778223999999,0.978
618.9141548,0.978
619.8504872,0.978
620.7868196000001,0.978
621.723152,0.979
622.6594842000001,0.981
623.5958164,0.981
624.5321486,0.981
625.4684808,0.981
626.404813,0.981
627.3411452,0.981
628.2774774,0.982
629.2138096,0.982
630.1501417999999,0.984
631.086474,0.984
632.0228063999999,0.984
632.9591388,0.984
633.8954712,0.982
634.8318036000001,0.982
635.768136,0.982
636.7044682000001,0.982
637.6408004,0.982
638.5771326,0.984
639.5134648,0.984
640.449797,0.984
641.3861294,0.985
642.3224617999999,0.985
643.2587942,0.984
644.1951266,0.984
645.131459,0.984
646.0677912,0.982
647.0041234,0.982
647.9404556,0.981
648.8767878,0.981
649.81312,0.981
650.7494524,0.981
651.6857848,0.982
652.6221172,0.984
653.5584496,0.984
654.494782,0.984
655.4311142,0.984
656.3674464,0.982
657.3037786,0.982
658.2401107999999,0.982
659.176443,0.984
660.1127753999999,0.985
661.0491078,0.985
661.9854402,0.987
662.9217726,0.987
663.858105,0.985
664.7944372000001,0.985
665.7307694,0.984
666.6671016,0.979
667.6034338,0.975
668.539766,0.972
669.4760984,0.972
670.4124307999999,0.975
671.3487632,0.976
672.2850956,0.985
673.221428,0.987
674.1577602,0.987
675.0940924,0.987
676.0304246,0.987
676.9667568,0.985
677.903089,0.985
678.8394214,0.985
679.7757538,0.985
680.7120862,0.985
681.6484186,0.985
682.584751,0.984
683.5210832,0.985
684.4574154,0.985
685.3937476,0.987
686.3300797999999,0.987
687.266412,0.987
688.2027443999999,0.987
689.1390768,0.987
690.0754092,0.987
691.0117416,0.987
691.948074,0.987
692.8844062000001,0.987
693.8207384,0.987
694.7570706,0.987
695.6934028,0.987
696.629735,0.988
697.5660674,0.988
698.5023998,0.989
699.4387322,0.989
700.3750646000001,0.992
701.311397,0.994
702.2477292000001,0.994
703.1840614,0.992
704.1203936,0.992
705.0567258,0.992
705.993058,0.992
706.9293904,0.992
707.8657228,0.994
708.8020552,0.994
709.7383876,0.995
710.67472,0.995
711.6110522,0.997
712.5473844,0.997
713.4837166,0.997
714.4200488,0.997
715.356381,0.997
716.2927132000001,0.997
717.2290454,0.995
718.1653776,0.995
719.1017098,0.997
720.038042,0.997
720.9743744,0.997
721.9107068,0.997
722.8470392,0.997
723.7833716,0.997
724.719704,0.997
725.6560362,0.997
726.5923684,0.997
727.5287006,0.998
728.4650328,0.998
729.401365,0.998
730.3376974,0.998
731.2740298,0.998
732.2103622000001,0.998
733.1466946,0.998
734.083027,0.997
735.0193592,0.997
735.9556914,0.997
736.8920236,0.995
737.8283557999999,0.995
738.764688,0.995
739.7010204,0.995
740.6373528,0.995
741.5736852,0.995
742.5100176000001,0.997
743.44635,0.997
744.3826822000001,0.997
745.3190144,0.995
746.2553466,0.995
747.1916788,0.995
748.128011,0.995
749.0643434,0.997
750.0006758,0.997
750.9370082,0.997
751.8733406,0.997
752.809673,0.997
753.7460052,0.997
754.6823374,0.997
755.6186696,0.997
756.5550018,0.997
757.491334,0.997
758.4276664,0.997
759.3639988,0.997
760.3003312000001,0.997
761.2366636,0.997
762.172996,0.995
763.1093282,0.995
764.0456604,0.997
764.9819926,0.997
765.9183247999999,0.997
766.854657,0.997
767.7909894,0.997
768.7273218,0.997
769.6636542,0.997
770.5999866000001,0.997
771.536319,0.997
772.4726512000001,0.997
773.4089834,0.998
774.3453156,0.997
775.2816478,0.997
776.21798,0.997
777.1543124,0.997
778.0906448,0.995
779.0269772,0.995
779.9633096,0.995
780.899642,0.995
781.8359742,0.995
782.7723064,0.997
783.7086386,0.997
784.6449708,0.997
785.581303,0.997
786.5176354,0.997
787.4539678,0.997
788.3903002000001,0.995
789.3266326,0.995
790.262965,0.995
791.1992972,0.997
792.1356294,0.997
793.0719616,0.997
794.0082937999999,0.997
794.944626,0.995
795.8809582,0.995
796.8172904,0.995
797.7536226,0.995
798.6899548,0.995
799.626287,0.994
800.5626194,0.994
801.4989518,0.994
802.4352842000001,0.994
803.3716166,0.992
804.307949,0.992
805.2442812,0.992
806.1806134,0.992
807.1169456,0.991
808.0532777999999,0.991
808.98961,0.991
809.9259423999999,0.991
810.8622748,0.991
811.7986072,0.991
812.7349396000001,0.991
813.671272,0.992
814.6076042000001,0.992
815.5439364,0.994
816.4802686,0.994
817.4166008,0.994
818.352933,0.995
819.2892654,0.995
820.2255978,0.995
821.1619302,0.995
822.0982626,0.995
823.034595,0.995
823.9709272,0.995
824.9072594,0.995
825.8435916,0.995
826.7799238,0.995
827.716256,0.995
828.6525884,0.995
829.5889208,0.995
830.5252532000001,0.995
831.4615856,0.995
832.397918,0.995
833.3342502,0.995
834.2705824,0.995
835.2069146,0.995
836.1432467999999,0.997
837.079579,0.997
838.0159113999999,0.995
838.9522438,0.995
839.8885762,0.997
840.8249086000001,0.997
841.761241,0.997
842.6975732000001,0.997
843.6339054,0.997
844.5702376,0.997
845.5065698,0.997
846.442902,0.997
847.3792344,0.997
848.3155667999999,0.997
849.2518992,0.997
850.1882316,0.997
851.124564,0.995
852.0608962,0.995
852.9972284,0.997
853.9335606,0.997
854.8698928,0.997
855.806225,0.997
856.7425574,0.997
857.6788898,0.997
858.6152222000001,0.997
859.5515546,0.998
860.487887,0.998
861.4242192,0.997
862.3605514,0.997
863.2968836,0.997
864.2332157999999,0.997
865.169548,0.997
866.1058803999999,0.997
867.0422128,0.997
867.9785452,0.998
868.9148776000001,0.998
869.85121,0.998
870.7875422000001,0.998
871.7238744,0.998
872.6602066,0.997
873.5965388,0.997
874.532871,0.997
875.4692034,0.997
876.4055357999999,0.997
877.3418682,0.997
878.2782006,0.997
879.214533,0.997
880.1508652,0.997
881.0871974,0.997
882.0235296,0.997
882.9598618,0.998
883.896194,0.998
884.8325262000001,0.998
885.7688584,0.998
886.7051906,0.998
887.6415228,0.998
888.577855,0.998
889.5141874,0.997
890.4505197999999,0.997
891.3868522,0.995
892.3231846,0.995
893.259517,0.997
894.1958492,0.995
895.1321814,0.995
896.0685136,0.995
897.0048458,0.995
897.941178,0.995
898.8775104,0.997
899.8138428,0.997
900.7501752000001,0.997
901.6865076,0.998
902.62284,0.998
903.5591722,0.997
904.4955044,0.997
905.4318366,0.998
906.3681687999999,0.998
907.304501,0.998
908.2408333999999,1.0
909.1771658,1.0
910.1134982,1.0
911.0498306000001,1.0
911.986163,0.998
912.9224952000001,0.998
913.8588274,0.998
914.7951596,1.0
915.7314918,1.0
916.667824,1.001
917.6041564,1.001
918.5404887999999,1.001
919.4768212,1.0
920.4131536,1.0
921.349486,1.001
922.2858182,1.001
923.2221504,1.001
924.1584826,1.001
925.0948148,1.001
926.031147,1.001
926.9674794,1.001
927.9038118,1.001
928.8401442,1.002
929.7764766,1.002
930.712809,1.002
931.6491412,1.002
932.5854734,1.002
933.5218056,1.002
934.4581377999999,1.002
935.39447,1.004
936.3308023999999,1.004
937.2671348,1.004
938.2034672,1.004
939.1397996000001,1.004
940.076132,1.005
941.0124642000001,1.005
941.9487964,1.005
942.8851286,1.007
943.8214608,1.007
944.757793,1.005
945.6941254,1.004
946.6304577999999,1.004
947.5667902,1.004
948.5031226,1.004
949.439455,1.004
950.3757872,1.004
951.3121194,1.004
952.2484516,1.004
953.1847838,1.004
954.121116,1.004
955.0574484,1.004
955.9937808,1.004
956.9301132,1.004
957.8664456,1.004
958.802778,1.004
959.7391102,1.004
960.6754424,1.004
961.6117746,1.004
962.5481067999999,1.004
963.484439,1.004
964.4207713999999,1.004
965.3571038,1.005
966.2934362,1.005
967.2297686,1.005
968.166101,1.005
969.1024332000001,1.005
970.0387654,1.004
970.9750976,1.004
971.9114298,1.005
972.847762,1.005
973.7840942,1.005
974.7204264,1.005
975.6567586,1.007
976.5930907999999,1.007
977.529423,1.008
978.4657553999999,1.008
979.4020878,1.008
980.3384202,1.008
981.2747526,1.008
982.211085,1.008
983.1474172000001,1.008
984.0837494,1.008
985.0200816,1.008
985.9564138,1.008
986.892746,1.008
987.8290784,1.008
988.7654107999999,1.008
989.7017432,1.008
990.6380756,1.008
991.574408,1.008
992.5107402,1.008
993.4470724,1.008
994.3834046,1.008
995.3197368,1.007
996.256069,1.007
997.1924014,1.007
998.1287338,1.007
999.0650662,1.008
1000.0013986,1.008
1000.937731,1.01
1001.8740632,1.008
1002.8103954,1.008
1003.7467276,1.008
1004.6830597999999,1.008
1005.619392,1.008
1006.5557243999999,1.008
1007.4920568,1.008
1008.4283892,1.008
1009.3647216,1.008
1010.301054,1.008
1011.2373862000001,1.008
1012.1737184,1.008
1013.1100506,1.008
1014.0463828,1.01
1014.982715,1.01
1015.9190474,1.01
1016.8553797999999,1.01
1017.7917122,1.011
1018.7280446,1.011
1019.664377,1.011
1020.6007092,1.012
1021.5370413999999,1.012
1022.4733736,1.01
1023.4097057999999,1.01
1024.346038,1.01
1025.2823704,1.01
1026.2187028,1.011
1027.1550352,1.011
1028.0913676,1.011
1029.0277,1.011
1029.9640322,1.011
1030.9003644,1.012
1031.8366966,1.011
1032.7730288,1.011
1033.709361,1.011
1034.6456934,1.012
1035.5820257999999,1.011
1036.5183582,1.011
1037.4546905999998,1.011
1038.391023,1.012
1039.3273551999998,1.011
1040.2636874,1.011
1041.2000196,1.012
1042.1363518,1.011
1043.072684,1.011
1044.0090164,1.011
1044.9453488,1.011
1045.8816812,1.011
1046.8180135999999,1.011
1047.754346,1.011
1048.6906781999999,1.011
1049.6270104,1.011
1050.5633426,1.012
1051.4996748,1.012
1052.436007,1.011
1053.3723392,1.011
1054.3086714,1.011
1055.2450036,1.011
1056.1813358000002,1.011
1057.117668,1.011
1058.0540004000002,1.011
1058.9903328,1.011
1059.9266652000001,1.012
1060.8629976,1.012
1061.79933,1.012
1062.7356622,1.011
1063.6719944,1.011
1064.6083266,1.011
1065.5446588,1.011
1066.480991,1.011
1067.4173234,1.011
1068.3536558,1.011
1069.2899882,1.011
1070.2263206,1.01
1071.162653,1.008
1072.0989852,1.008
1073.0353174,1.007
1073.9716496,1.007
1074.9079818,1.008
1075.844314,1.008
1076.7806464,1.008
1077.7169787999999,1.01
1078.6533112,1.01
1079.5896435999998,1.011
1080.525976,1.012
1081.4623081999998,1.012
1082.3986404,1.012
1083.3349726,1.012
1084.2713048,1.012
1085.207637,1.012
1086.1439694,1.012
1087.0803018,1.012
1088.0166342,1.012
1088.9529665999999,1.012
1089.889299,1.014
1090.8256311999999,1.014
1091.7619634,1.014
1092.6982956,1.012
1093.6346278,1.012
1094.57096,1.012
1095.5072924,1.012
1096.4436248,1.014
1097.3799572,1.014
1098.3162896,1.014
1099.252622,1.015
1100.1889542,1.015
1101.1252864,1.017
1102.0616186,1.017
1102.9979508000001,1.015
1103.934283,1.015
1104.8706154000001,1.015
1105.8069478,1.014
1106.7432802,1.014
1107.6796126,1.014
1108.615945,1.014
1109.5522772,1.014
1110.4886094,1.015
1111.4249416,1.015
1112.3612738000002,1.015
1113.297606,1.014
1114.2339384000002,1.014
1115.1702708,1.014
1116.1066032,1.014
1117.0429356,1.015
1117.979268,1.015
1118.9156002,1.015
1119.8519324,1.017
1120.7882646,1.015
1121.7245968,1.015
1122.660929,1.015
1123.5972614,1.015
1124.5335938,1.015
1125.4699262,1.015
1126.4062586,1.015
1127.342591,1.015
1128.2789232,1.014
1129.2152554,1.014
1130.1515876,1.014
1131.0879198,1.014
1132.024252,1.012
1132.9605844,1.011
1133.8969167999999,1.011
1134.8332492,1.01
1135.7695815999998,1.008
1136.705914,1.008
1137.6422461999998,1.007
1138.5785784,1.007
1139.5149106,1.008
1140.4512428,1.01
1141.387575,1.01
1142.3239072,1.01
1143.2602394,1.01
1144.1965716,1.01
1145.1329038000001,1.011
1146.069236,1.011
1147.0055684000001,1.011
1147.9419008,1.012
1148.8782332,1.012
1149.8145656,1.014
1150.750898,1.014
1151.6872302,1.015
1152.6235624,1.015
1153.5598946,1.015
1154.4962268000002,1.015
1155.432559,1.015
1156.3688914000002,1.015
1157.3052238,1.017
1158.2415562,1.017
1159.1778886,1.017
1160.114221,1.018
1161.0505532,1.018
1161.9868854,1.018
1162.9232176,1.018
1163.8595498,1.018
1164.795882,1.018
1165.7322144,1.02
1166.6685468,1.02
1167.6048792,1.02
1168.5412116,1.02
1169.477544,1.02
1170.4138762,1.018
1171.3502084,1.018
1172.2865406,1.017
1173.2228728,1.015
1174.159205,1.014
1175.0955374,1.011
1176.0318697999999,1.01
1176.9682022,1.008
1177.9045345999998,1.008
1178.840867,1.007
1179.7771991999998,1.008
1180.7135314,1.011
1181.6498636,1.017
1182.5861958,1.017
1183.522528,1.018
1184.4588604,1.02
1185.3951928,1.02
1186.3315252,1.02
1187.2678575999998,1.02
1188.20419,1.02
1189.1405221999999,1.02
1190.0768544,1.02
1191.0131866,1.02
1191.9495188,1.02
1192.885851,1.02
1193.8221834,1.02
1194.7585158,1.021
1195.6948482,1.02
1196.6311805999999,1.02
1197.567513,1.02
1198.5038452,1.02
1199.4401774,1.02
1200.3765096,1.02
1201.3128418000001,1.021
1202.249174,1.02
1203.1855064000001,1.02
1204.1218388,1.02
1205.0581712,1.02
1205.9945036,1.02
1206.930836,1.02
1207.8671682,1.02
1208.8035004,1.02
1209.7398326,1.02
1210.6761648000002,1.02
1211.612497,1.018
1212.5488294000002,1.018
1213.4851618,1.02
1214.4214942,1.02
1215.3578266,1.02
1216.294159,1.02
1217.2304912,1.02
1218.1668234,1.02
1219.1031556,1.02
1220.0394878000002,1.02
1220.97582,1.018
1221.9121522,1.018
1222.8484844,1.02
1223.7848166,1.02
1224.7211488,1.02
1225.657481,1.02
1226.5938134,1.02
1227.5301458,1.02
1228.4664782,1.02
1229.4028105999998,1.018
1230.339143,1.018
1231.2754751999998,1.017
1232.2118074,1.017
1233.1481396,1.015
1234.0844718,1.015
1235.020804,1.014
1235.9571364,1.014
1236.8934688,1.014
1237.8298012,1.014
1238.7661335999999,1.012
1239.702466,1.012
1240.6387981999999,1.012
1241.5751304,1.012
1242.5114626,1.008
1243.4477948,1.008
1244.384127,1.008
1245.3204594000001,1.007
1246.2567918,1.007
1247.1931242,1.005
1248.1294566,1.002
1249.065789,1.001
1250.0021212,1.0
1250.9384534,1.0
1251.8747856,1.0
1252.8111178000001,1.0
1253.74745,0.998
1254.6837824000002,0.998
1255.6201148,0.997
1256.5564472,0.997
1257.4927796,0.997
1258.429112,0.997
1259.3654442,0.997
1260.3017764,0.997
1261.2381086,0.997
1262.1744408000002,0.997
1263.110773,0.997
1264.0471054000002,0.997
1264.9834378,0.997
1265.9197702000001,0.997
1266.8561026,0.997
1267.792435,0.997
1268.7287672,0.997
1269.6650994,0.997
1270.6014316,0.997
1271.5377638,0.997
1272.474096,0.997
1273.4104284,0.997
1274.3467608,0.997
1275.2830932,0.997
1276.2194256,0.995
1277.155758,0.995
1278.0920902,0.995
1279.0284224,0.995
1279.9647546,0.995
1280.9010868,0.995
1281.837419,0.995
1282.7737514,0.995
1283.7100838,0.995
1284.6464162,0.995
1285.5827485999998,0.995
1286.519081,0.995
1287.4554131999998,0.995
1288.3917454,0.995
1289.3280776,0.995
1290.2644098,0.995
1291.200742,0.994
1292.1370744,0.994
1293.0734068,0.994
1294.0097392,0.994
1294.9460715999999,0.994
1295.882404,0.994
1296.8187361999999,0.994
1297.7550684,0.994
1298.6914006,0.994
1299.6277328,0.994
1300.564065,0.994
1301.5003974,0.995
1302.4367298,0.995
1303.3730622,0.995
1304.3093946,0.995
1305.245727,0.995
1306.1820592,0.995
1307.1183914,0.995
1308.0547236,0.995
1308.9910558000001,0.995
1309.927388,0.995
1310.8637202,0.995
1311.8000524,0.995
1312.7363846,0.995
1313.6727168,0.995
1314.609049,0.995
1315.5453814,0.995
1316.4817138,0.995
1317.4180462,0.995
1318.3543786,0.995
1319.290711,0.995
1320.2270432,0.995
1321.1633754,0.995
1322.0997076,0.995
1323.0360398,0.995
1323.972372,0.995
1324.9087044,0.995
1325.8450368,0.995
1326.7813692,0.995
1327.7177015999998,0.995
1328.654034,0.995
1329.5903661999998,0.995
1330.5266984,0.995
1331.4630306,0.995
1332.3993628,0.995
1333.335695,0.995
1334.2720274,0.995
1335.2083598,0.995
1336.1446922,0.995
1337.0810245999999,0.995
1338.017357,0.995
1338.9536891999999,0.995
1339.8900214,0.995
1340.8263536,0.995
1341.7626858,0.995
1342.699018,0.995
1343.6353504,0.994
1344.5716828,0.994
1345.5080152,0.994
1346.4443476,0.994
1347.38068,0.994
1348.3170122,0.994
1349.2533444,0.994
1350.1896766,0.994
1351.1260088000001,0.994
1352.062341,0.994
1352.9986734000001,0.994
1353.9350058,0.994
1354.8713382,0.992
1355.8076706,0.992
1356.744003,0.992
1357.6803352,0.992
1358.6166674,0.992
1359.5529996,0.992
1360.4893318000002,0.992
1361.425664,0.992
1362.3619964000002,0.992
1363.2983288,0.992
1364.2346612000001,0.992
1365.1709936,0.992
1366.107326,0.992
1367.0436582,0.992
1367.9799904,0.992
1368.9163226,0.992
1369.8526548,0.992
1370.788987,0.992
1371.7253194,0.992
1372.6616518,0.992
1373.5979842,0.992
1374.5343166,0.992
1375.470649,0.992
1376.4069812,0.992
1377.3433134,0.992
1378.2796456,0.992
1379.2159778,0.992
1380.15231,0.992
1381.0886424,0.992
1382.0249747999999,0.992
1382.9613072,0.992
1383.8976395999998,0.992
1384.833972,0.992
1385.7703041999998,0.992
1386.7066364,0.992
1387.6429686,0.992
1388.5793008,0.992
1389.515633,0.992
1390.4519654,0.992
1391.3882978,0.991
1392.3246302,0.991
1393.2609625999999,0.991
1394.197295,0.991
1395.1336271999999,0.991
1396.0699594,0.991
1397.0062916,0.991
1397.9426238,0.991
1398.878956,0.991
1399.8152882,0.991
1400.7516204,0.991
1401.6879526,0.991
1402.6242848000002,0.991
1403.560617,0.991
1404.4969494000002,0.991
1405.4332818,0.991
1406.3696142000001,0.991
1407.3059466,0.991
1408.242279,0.991
1409.1786112,0.991
1410.1149434,0.991
1411.0512756,0.991
1411.9876078,0.991
1412.92394,0.991
1413.8602724,0.991
1414.7966048,0.991
1415.7329372,0.991
1416.6692696,0.991
1417.605602,0.991
1418.5419342,0.992
1419.4782664,0.991
1420.4145986,0.991
1421.3509308,0.995
1422.287263,0.995
1423.2235954,0.992
1424.1599277999999,0.992
1425.0962602,0.992
1426.0325925999998,0.992
1426.968925,0.992
1427.9052571999998,0.992
1428.8415894,0.991
1429.7779216,0.991
1430.7142538,0.991
1431.650586,0.991
1432.5869184,0.989
1433.5232508,0.989
1434.4595832,0.989
1435.3959155999999,0.989
1436.332248,0.988
1437.2685801999999,0.988
1438.2049124,0.988
1439.1412446,0.988
1440.0775768,0.988
1441.013909,0.988
1441.9502414,0.988
1442.8865738,0.987
1443.8229062,0.985
1444.7592386,0.985
1445.695571,0.984
1446.6319032,0.984
1447.5682354,0.984
1448.5045676,0.984
1449.4408998000001,0.984
1450.377232,0.984
1451.3135644000001,0.984
1452.2498968,0.982
1453.1862292,0.981
1454.1225616,0.981
1455.058894,0.979
1455.9952262,0.981
1456.9315584,0.982
1457.8678906,0.982
1458.8042228000002,0.982
1459.740555,0.984
1460.6768874000002,0.984
1461.6132198,0.985
1462.5495522,0.987
1463.4858846,0.987
1464.422217,0.987
1465.3585492,0.987
1466.2948814,0.987
1467.2312136,0.987
1468.1675458,0.988
1469.103878,0.988
1470.0402104,0.988
1470.9765428,0.989
1471.9128752,0.989
1472.8492076,0.989
1473.78554,0.989
1474.7218722,0.988
1475.6582044,0.987
1476.5945366,0.987
1477.5308688,0.985
1478.467201,0.985
1479.4035331999999,0.985
1480.3398654,0.985
1481.2761976,0.985
1482.2125298,0.985
1483.148862,0.985
1484.0851944,0.985
1485.0215268,0.985
1485.9578592,0.985
1486.8941915999999,0.984
1487.830524,0.984
1488.7668562,0.984
1489.7031884,0.984
1490.6395206,0.984
1491.5758528000001,0.984
1492.512185,0.984
1493.4485174000001,0.984
1494.3848498,0.982
1495.3211822,0.982
1496.2575146,0.982
1497.193847,0.982
1498.1301792,0.982
1499.0665114,0.984
1500.0028436,0.982
1500.9391758000002,0.982
1501.875508,0.981
1502.8118404000002,0.981
1503.7481728,0.979
1504.6845052,0.979
1505.6208376,0.978
1506.55717,0.978
1507.4935022,0.978
1508.4298344,0.978
1509.3661666,0.978
1510.3024988,0.978
1511.238831,0.978
1512.1751634,0.978
1513.1114958,0.978
1514.0478282,0.978
1514.9841606,0.978
1515.920493,0.978
1516.8568252,0.978
1517.7931574,0.978
1518.7294896,0.978
1519.6658218,0.978
1520.602154,0.978
1521.5384864,0.978
1522.4748187999999,0.978
1523.4111512,0.979
1524.3474835999998,0.981
1525.283816,0.981
1526.2201481999998,0.982
1527.1564804,0.982
1528.0928126,0.982
1529.0291448,0.984
1529.965477,0.984
1530.9018094,0.984
1531.8381418,0.984
1532.7744742,0.985
1533.7108065999998,0.985
1534.647139,0.985
1535.5834711999998,0.985
1536.5198034,0.984
1537.4561356,0.981
1538.3924678,0.981
1539.3288,0.979
1540.2651324,0.979
1541.2014648,0.979
1542.1377972,0.979
1543.0741295999999,0.981
1544.010462,0.982
1544.9467941999999,0.982
1545.8831264,0.982
1546.8194586,0.982
1547.7557908,0.982
1548.692123,0.982
1549.6284554000001,0.982
1550.5647878,0.982
1551.5011202,0.984
1552.4374526,0.984
1553.373785,0.982
1554.3101172,0.982
1555.2464494,0.981
1556.1827816,0.981
1557.1191138000002,0.981
1558.055446,0.981
1558.9917784000002,0.981
1559.9281108,0.981
1560.8644432,0.981
1561.8007756,0.981
1562.737108,0.982
1563.6734402,0.982
1564.6097724,0.982
1565.5461046,0.982
1566.4824368000002,0.982
1567.418769,0.982
1568.3551012,0.982
1569.2914334,0.982
1570.2277656,0.984
1571.1640978,0.985
1572.10043,0.985
1573.0367624,0.984
1573.9730948,0.984
1574.9094272,0.984
1575.8457595999998,0.984
1576.782092,0.984
1577.7184241999998,0.985
1578.6547564,0.985
1579.5910886,0.987
1580.5274208,0.987
1581.463753,0.987
1582.4000854,0.985
1583.3364178,0.985
1584.2727502,0.985
1585.2090825999999,0.985
1586.145415,0.985
1587.0817471999999,0.985
1588.0180794,0.985
1588.9544116,0.987
1589.8907438,0.988
1590.827076,0.988
1591.7634084000001,0.988
1592.6997408,0.985
1593.6360732,0.985
1594.5724056,0.985
1595.508738,0.985
1596.4450702,0.985
1597.3814024,0.984
1598.3177346,0.984
1599.2540668000001,0.984
1600.190399,0.984
1601.1267314000002,0.984
1602.0630638,0.985
1602.9993962,0.985
1603.9357286,0.985
1604.872061,0.985
1605.8083932,0.987
1606.7447254,0.987
1607.6810576,0.987
1608.6173898000002,0.987
1609.553722,0.987
1610.4900544000002,0.987
1611.4263868,0.987
1612.3627192000001,0.985
1613.2990516,0.985
1614.235384,0.985
1615.1717162,0.985
1616.1080484,0.985
1617.0443806,0.985
1617.9807128,0.985
1618.917045,0.985
1619.8533774,0.985
1620.7897098,0.985
1621.7260422,0.985
1622.6623746,0.987
1623.598707,0.988
1624.5350392,0.988
1625.4713714,0.988
1626.4077036,0.988
1627.3440358,0.988
1628.280368,0.988
1629.2167004,0.988
1630.1530328,0.988
1631.0893652,0.989
1632.0256975999998,0.988
1632.96203,0.987
1633.8983621999998,0.987
1634.8346944,0.987
1635.7710266,0.988
1636.7073588,0.988
1637.643691,0.989
1638.5800234,0.991
1639.5163558,0.991
1640.4526882,0.991
1641.3890205999999,0.994
1642.325353,0.991
1643.2616851999999,0.991
1644.1980174,0.991
1645.1343496,0.989
1646.0706818,0.989
1647.007014,0.989
1647.9433464,0.989
1648.8796788,0.989
1649.8160112,0.989
1650.7523436,0.989
1651.688676,0.987
1652.6250082,0.987
1653.5613404,0.989
1654.4976726,0.989
1655.4340048000001,0.989
1656.370337,0.989
1657.3066692,0.989
1658.2430014,0.988
1659.1793336,0.987
1660.1156658,0.987
1661.051998,0.987
1661.9883304,0.987
1662.9246628,0.985
1663.8609952,0.985
1664.7973276,0.985
1665.73366,0.985
1666.6699922,0.984
1667.6063244,0.984
1668.5426566,0.984
1669.4789888,0.984
1670.415321,0.984
1671.3516534,0.984
1672.2879858,0.984
1673.2243182,0.982
1674.1606505999998,0.982
1675.096983,0.982
1676.0333151999998,0.982
1676.9696474,0.982
1677.9059796,0.984
1678.8423118,0.982
1679.778644,0.982
1680.7149764,0.982
1681.6513088,0.982
1682.5876412,0.982
1683.5239735999999,0.982
1684.460306,0.982
1685.3966381999999,0.982
1686.3329704,0.982
1687.2693026,0.984
1688.2056348,0.982
1689.141967,0.982
1690.0782994,0.984
1691.0146318,0.984
1691.9509642,0.984
1692.8872966,0.981
1693.823629,0.981
1694.7599612,0.979
1695.6962934,0.979
1696.6326256,0.979
1697.5689578000001,0.979
1698.50529,0.978
1699.4416224000001,0.978
1700.3779548,0.979
1701.3142872,0.981
1702.2506196,0.981
1703.186952,0.982
1704.1232842,0.982
1705.0596164,0.982
1705.9959486,0.982
1706.9322808000002,0.982
1707.868613,0.982
1708.8049454000002,0.982
1709.7412778,0.982
1710.6776102000001,0.981
1711.6139426,0.981
1712.550275,0.981
1713.4866072,0.979
1714.4229394,0.979
1715.3592716,0.978
1716.2956038,0.978
1717.231936,0.978
1718.1682684,0.978
1719.1046008,0.978
1720.0409332,0.978
1720.9772656,0.978
1721.913598,0.978
1722.8499302,0.978
1723.7862624,0.978
1724.7225946,0.978
1725.6589268,0.978
1726.595259,0.978
1727.5315914,0.978
1728.4679237999999,0.978
1729.4042562,0.978
1730.3405885999998,0.978
1731.276921,0.978
1732.2132531999998,0.978
1733.1495854,0.979
1734.0859176,0.982
1735.0222498,0.981
1735.958582,0.981
1736.8949142,0.981
1737.8312464,0.981
1738.7675786,0.981
1739.7039108000001,0.982
1740.640243,0.982
1741.5765754000001,0.982
1742.5129078,0.981
1743.4492402,0.979
1744.3855726,0.979
1745.321905,0.978
1746.2582372,0.979
1747.1945694,0.979
1748.1309016,0.979
1749.0672338000002,0.978
1750.003566,0.978
1750.9398984000002,0.978
1751.8762308,0.978
1752.8125632,0.978
1753.7488956,0.978
1754.685228,0.978
1755.6215602,0.978
1756.5578924,0.978
1757.4942246,0.978
1758.4305568,0.978
1759.366889,0.978
1760.3032214,0.978
1761.2395538,0.978
1762.1758862,0.978
1763.1122186,0.978
1764.048551,0.978
1764.9848832,0.978
1765.9212154,0.978
1766.8575476,0.978
1767.7938798,0.978
1768.730212,0.978
1769.6665444,0.978
1770.6028767999999,0.979
1771.5392092,0.979
1772.4755415999998,0.981
1773.411874,0.982
1774.3482061999998,0.982
1775.2845384,0.982
1776.2208706,0.982
1777.1572028,0.981
1778.093535,0.981
1779.0298674,0.981
1779.9661998,0.981
1780.9025322,0.979
1781.8388645999999,0.978
1782.775197,0.978
1783.7115291999999,0.978
1784.6478614,0.978
1785.5841936,0.978
1786.5205258,0.979
1787.456858,0.979
1788.3931904,0.979
1789.3295228,0.979
1790.2658552,0.979
1791.2021876,0.981
1792.13852,0.982
1793.0748522,0.982
1794.0111844,0.984
1794.9475166,0.984
1795.8838488000001,0.982
1796.820181,0.982
1797.7565134000001,0.982
1798.6928458,0.982
1799.6291782,0.984
1800.5655106,0.984
1801.501843,0.984
1802.4381752,0.984
1803.3745074,0.984
1804.3108396,0.984
1805.2471718000002,0.985
1806.183504,0.984
1807.1198364000002,0.984
1808.0561688,0.984
1808.9925012,0.984
1809.9288336,0.984
1810.865166,0.984
1811.8014982,0.984
1812.7378304,0.985
1813.6741626,0.985
1814.6104948,0.985
1815.546827,0.985
1816.4831594,0.985
1817.4194918,0.985
1818.3558242,0.985
1819.2921566,0.984
1820.228489,0.984
1821.1648212,0.984
1822.1011534,0.984
1823.0374856,0.982
1823.9738178,0.982
1824.91015,0.982
1825.8464821999999,0.981
1826.7828144,0.981
1827.7191466,0.982
1828.6554788,0.982
1829.591811,0.982
1830.5281434,0.984
1831.4644758,0.984
1832.4008082,0.984
1833.3371405999999,0.984
1834.273473,0.984
1835.2098052,0.984
1836.1461374,0.984
1837.0824696,0.984
1838.0188018000001,0.984
1838.955134,0.982
1839.8914664000001,0.982
1840.8277988,0.982
1841.7641312,0.982
1842.7004636,0.981
1843.636796,0.981
1844.5731282,0.982
1845.5094604,0.982
1846.4457926,0.982
1847.3821248000002,0.982
1848.318457,0.984
1849.2547894000002,0.984
1850.1911218,0.984
1851.1274542,0.984
1852.0637866,0.984
1853.000119,0.984
1853.9364512,0.984
1854.8727834,0.984
1855.8091156,0.984
1856.7454478,0.984
1857.68178,0.984
1858.6181124,0.984
1859.5544448,0.984
1860.4907772,0.984
1861.4271096,0.984
1862.363442,0.982
1863.2997742,0.981
1864.2361064,0.981
1865.1724386,0.979
1866.1087708,0.981
1867.045103,0.982
1867.9814354,0.982
1868.9177677999999,0.982
1869.8541002,0.984
1870.7904325999998,0.984
1871.726765,0.984
1872.6630971999998,0.984
1873.5994294,0.984
1874.5357616,0.984
1875.4720938,0.982
1876.408426,0.982
1877.3447584,0.982
1878.2810908,0.982
1879.2174232,0.982
1880.1537555999998,0.982
1881.090088,0.982
1882.0264201999998,0.981
1882.9627524,0.979
1883.8990846,0.979
1884.8354168,0.979
1885.771749,0.979
1886.7080814,0.979
1887.6444138,0.979
1888.5807462,0.982
1889.5170785999999,0.982
1890.453411,0.982
1891.3897431999999,0.982
1892.3260754,0.981
1893.2624076,0.981
1894.1987398,0.982
1895.135072,0.982
1896.0714044000001,0.982
1897.0077368,0.982
1897.9440692,0.982
1898.8804016,0.982
1899.816734,0.982
1900.7530662,0.982
1901.6893984,0.982
1902.6257306,0.982
1903.5620628000001,0.982
1904.498395,0.982
1905.4347272,0.981
1906.3710594,0.981
1907.3073916,0.979
1908.2437238,0.979
1909.180056,0.979
1910.1163884,0.979
1911.0527208,0.979
1911.9890532,0.978
1912.9253856,0.979
1913.861718,0.979
1914.7980502,0.981
1915.7343824,0.981
1916.6707146,0.981
1917.6070468,0.979
1918.543379,0.979
1919.4797114,0.979
1920.4160438,0.979
1921.3523762,0.979
1922.2887085999998,0.979
1923.225041,0.979
1924.1613731999998,0.979
1925.0977054,0.981
1926.0340376,0.981
1926.9703698,0.981
1927.906702,0.981
1928.8430344,0.981
1929.7793668,0.981
1930.7156992,0.981
1931.6520315999999,0.981
1932.588364,0.981
1933.5246961999999,0.982
1934.4610284,0.982
1935.3973606,0.982
1936.3336928,0.982
1937.270025,0.981
1938.2063574000001,0.979
1939.1426898,0.979
1940.0790222,0.979
1941.0153546,0.979
1941.951687,0.979
1942.8880192,0.979
1943.8243514,0.979
1944.7606836,0.979
1945.6970158000001,0.979
1946.633348,0.979
1947.5696804000002,0.979
1948.5060128,0.981
1949.4423452,0.981
1950.3786776,0.981
1951.31501,0.979
1952.2513422,0.979
1953.1876744,0.978
1954.1240066,0.976
1955.0603388000002,0.976
1955.996671,0.975
1956.9330034000002,0.975
1957.8693358,0.976
1958.8056682000001,0.978
1959.7420006,0.978
1960.678333,0.979
1961.6146652,0.981
1962.5509974,0.982
1963.4873296,0.982
1964.4236618,0.982
1965.359994,0.982
1966.2963264,0.984
1967.2326588,0.984
1968.1689912,0.984
1969.1053236,0.984
1970.041656,0.984
1970.9779882,0.984
1971.9143204,0.984
1972.8506526,0.985
1973.7869848,0.985
1974.723317,0.985
1975.6596494,0.987
1976.5959818,0.987
1977.5323142,0.987
1978.4686465999998,0.987
1979.404979,0.987
1980.3413111999998,0.987
1981.2776434,0.987
1982.2139756,0.987
1983.1503078,0.988
1984.08664,0.988
1985.0229724,0.987
1985.9593048,0.987
1986.8956372,0.987
1987.8319695999999,0.987
1988.768302,0.988
1989.7046341999999,0.987
1990.6409664,0.987
1991.5772986,0.987
1992.5136308,0.987
1993.449963,0.987
1994.3862952,0.987
1995.3226274,0.987
1996.2589596,0.987
1997.1952918000002,0.987
1998.131624,0.985
1999.0679564000002,0.985
2000.0042888,0.985
2000.9406212000001,0.985
2001.8769536,0.985
2002.813286,0.985
2003.7496182,0.985
2004.6859504,0.985
2005.6222826,0.985
2006.5586148,0.9845
2007.494947,0.984
2008.4312794,0.983
2009.3676118,0.982
2010.3039442,0.982
2011.2402766,0.982
2012.176609,0.9815
2013.1129412,0.981
2014.0492734,0.98
2014.9856056,0.979
2015.9219378,0.9785
2016.85827,0.978
2017.7946024,0.976
2018.7309347999999,0.974
2019.6672672,0.9715
2020.6035995999998,0.969
2021.539932,0.967
2022.4762641999998,0.965
2023.4125964,0.9635
2024.3489286,0.962
2025.2852608,0.9605
2026.221593,0.959
2027.1579254,0.9575
2028.0942578,0.956
2029.0305902,0.954
2029.9669225999999,0.952
2030.903255,0.95
2031.8395871999999,0.948
2032.7759194,0.9455
2033.7122516,0.943
2034.6485838,0.941
2035.584916,0.939
2036.5212484,0.937
2037.4575808,0.935
2038.3939132,0.9325
2039.3302456,0.93
2040.266578,0.9285
2041.2029102,0.927
2042.1392424,0.922
2043.0755746,0.9171
2044.0119068000001,0.9106
2044.948239,0.9041
2045.8845714,0.8986
2046.8209038,0.8931
2047.7572361999999,0.8871
2048.6935685999997,0.8811
2049.629901,0.8756
2050.5662331999997,0.8701
2051.5025653999996,0.8641
2052.4388976,0.8581
2053.3752298,0.8482
2054.311562,0.8383
2055.2478944,0.8262
2056.1842268,0.8141
2057.1205591999997,0.8026
2058.0568915999997,0.7911
2058.993224,0.7786
2059.9295561999998,0.7662
2060.8658883999997,0.7547
2061.8022206,0.7432
2062.7385528,0.7312
2063.674885,0.7192
2064.6112174,0.7131
2065.5475498,0.7071
2066.4838821999997,0.7011
2067.4202146,0.6951
2068.356547,0.6833
2069.2928792,0.6713
2070.2292113999997,0.6598
2071.1655436,0.6483
2072.1018758,0.6359
2073.038208,0.6234
2073.9745404,0.6103
2074.9108728,0.5972
2075.8472051999997,0.5847
2076.7835376,0.5722
2077.71987,0.5582
2078.6562022,0.5442
2079.5925343999997,0.5307
2080.5288666,0.5173
2081.4651988,0.5043
2082.401531,0.4913
2083.3378632,0.4773
2084.2741954,0.4633
2085.2105276,0.4508
2086.1468598,0.4383
2087.083192,0.4244
2088.0195244,0.4104
2088.9558568,0.4061
2089.8921892,0.4021
2090.8285216,0.3976
2091.764854,0.3932
2092.7011862,0.3847
2093.6375184,0.3761
2094.5738506000002,0.3667
2095.5101828,0.3572
2096.446515,0.3477
2097.3828474,0.3382
2098.3191798000003,0.3287
2099.2555122,0.3192
2100.1918446,0.3092
2101.128177,0.2993
2102.0645092,0.2863
2103.0008414,0.2734
2103.9371736000003,0.2652
2104.8735058,0.2572
2105.809838,0.2497
2106.7461704,0.2422
2107.6825028000003,0.2343
2108.6188352,0.2263
2109.5551676,0.2183
2110.4915,0.2103
2111.4278322,0.2027
2112.3641644,0.1952
2113.3004966000003,0.1877
2114.2368288000002,0.1802
2115.173161,0.1722
2116.1094934000002,0.1642
2117.0458258000003,0.1562
2117.9821582,0.1482
2118.9184906,0.147
2119.854823,0.146
2120.7911552,0.1475
2121.7274874,0.149
2122.6638196000004,0.163
2123.6001518000003,0.1775
2124.536484,0.192
2125.4728164000003,0.2065
2126.4091488000004,0.2214
2127.3454812,0.2364
2128.2818136,0.2509
2129.218146,0.2654
2130.1544782,0.2737
2131.0908104,0.2818
2132.0271426,0.2864
2132.9634748,0.2909
2133.899807,0.3595
2134.8361394,0.4299
2135.7724718,0.4737
2136.7088042,0.5166
2137.6451366,0.5475
2138.581469,0.5779
2139.5178012,0.6373
2140.4541334,0.6978
2141.3904656,0.7149
2142.3267978,0.7304
2143.26313,0.732
2144.1994624,0.733
2145.1357948,0.7335
2146.0721271999996,0.734
2147.0084595999997,0.7335
2147.944792,0.733
2148.8811241999997,0.7272
2149.8174563999996,0.7212
2150.7537886,0.6972
2151.6901208,0.6728
2152.626453,0.6483
2153.5627854,0.6238
2154.4991178,0.5844
2155.4354501999997,0.5444
2156.3717825999997,0.5103
2157.308115,0.4763
2158.2444471999997,0.4481
2159.1807793999997,0.4201
2160.1171116,0.408
2161.0534438,0.3965
2161.989776,0.3841
2162.9261082,0.3716
2163.8624403999997,0.3505
2164.7987726,0.329
2165.7351048,0.308
2166.671437,0.2871
2167.6077694,0.2654
2168.5441018,0.2437
2169.4804341999998,0.2198
2170.4167666,0.1958
2171.353099,0.1786
2172.2894312,0.1616
2173.2257634,0.1547
2174.1620956,0.1483
2175.0984278,0.147
2176.03476,0.146
2176.9710924,0.147
2177.9074248,0.148
2178.8437572,0.1571
2179.7800896,0.1666
2180.716422,0.1751
2181.6527542,0.1836
2182.5890864,0.193
2183.5254186,0.2025
2184.4617508,0.211
2185.398083,0.2195
2186.3344154,0.2291
2187.2707478,0.2386
2188.2070802,0.2472
2189.1434126,0.2557
2190.079745,0.2651
2191.0160772,0.2746
2191.9524094,0.286
2192.8887416000002,0.2975
2193.8250738,0.3104
2194.761406,0.3234
2195.6977384,0.3364
2196.6340708000002,0.3494
2197.5704032,0.3747
2198.5067356,0.4007
2199.443068,0.4138
2200.3794002,0.4263
2201.3157324,0.4393
2202.2520646000003,0.4523
2203.1883968,0.4653
2204.124729,0.4782
2205.0610614,0.4913
2205.9973938000003,0.5045
2206.9337262,0.5175
2207.8700586,0.5304
2208.806391,0.543
2209.7427232,0.5554
2210.6790554,0.5565
2211.6153876000003,0.557
2212.5517198000002,0.5722
2213.488052,0.5882
2214.4243844000002,0.6032
2215.3607168000003,0.6182
2216.2970492,0.6341
2217.2333816,0.6501
2218.169714,0.6803
2219.1060462,0.7112
2220.0423784,0.7271
2220.9787106000003,0.7421
2221.9150428000003,0.758
2222.851375,0.774
2223.7877074000003,0.7892
2224.7240398000004,0.8043
2225.6603722,0.8164
2226.5967046,0.8284
2227.533037,0.83
2228.4693692,0.831
2229.4057014,0.8486
2230.3420336000004,0.867
2231.2783658000003,0.8765
2232.214698,0.8855
2233.1510304000003,0.8936
2234.0873628000004,0.9015
2235.0236952,0.9058
2235.9600276,0.9098
2236.89636,0.9189
2237.8326922,0.9284
2238.7690244,0.9304
2239.7053566,0.9319
2240.6416888,0.9334
2241.578021,0.9349
2242.5143534,0.9458
2243.4506858,0.9574
2244.3870182,0.9642
2245.3233506,0.9707
2246.259683,0.9734
2247.1960152,0.9759
2248.1323474,0.9784
2249.0686796,0.9809
2250.0050118,0.9815
2250.941344,0.982
2251.8776761999998,0.9829
2252.8140083999997,0.9839
2253.7503406,0.9854
2254.6866728,0.9869
2255.623005,0.987
2256.5593374,0.987
2257.4956698,0.987
2258.4320021999997,0.987
2259.3683346,0.987
2260.304667,0.987
2261.2409992,0.987
2262.1773313999997,0.987
2263.1136636,0.9875
2264.0499958,0.988
2264.986328,0.9885
2265.9226604,0.989
2266.8589928,0.9899
2267.7953251999998,0.9909
2268.7316576,0.991
2269.66799,0.991
2270.6043222,0.9901
2271.5406543999998,0.9891
2272.4769866,0.989
2273.4133188,0.989
2274.349651,0.989
2275.2859834,0.989
2276.2223158,0.9885
2277.1586482,0.988
2278.0949806,0.988
2279.031313,0.988
2279.9676452,0.988
2280.9039774,0.988
2281.8403096,0.9885
2282.7766418,0.989
2283.712974,0.9899
2284.6493064,0.9909
2285.5856388,0.9915
2286.5219712,0.992
2287.4583036,0.9934
2288.394636,0.9949
2289.3309682,0.995
2290.2673004,0.995
2291.2036326,0.9936
2292.1399648,0.9921
2293.076297,0.9915
2294.0126294,0.991
2294.9489618000002,0.9901
2295.8852942,0.9891
2296.8216266,0.9872
2297.757959,0.9852
2298.6942912,0.9836
2299.6306234,0.9821
2300.5669556000003,0.9806
2301.5032878,0.9791
2302.43962,0.9771
2303.3759524,0.9751
2304.3122848000003,0.9745
2305.2486172,0.974
2306.1849496,0.9726
2307.121282,0.9711
2308.0576142,0.9701
2308.9939464,0.9691
2309.9302786000003,0.9685
2310.8666108,0.968
2311.802943,0.968
2312.7392754,0.968
2313.6756078000003,0.9671
2314.6119402,0.9661
2315.5482726,0.9646
2316.484605,0.9631
2317.4209372,0.9625
2318.3572694,0.962
2319.2936016000003,0.962
2320.2299338000003,0.962
2321.166266,0.9615
2322.1025984000003,0.961
2323.0389308000003,0.961
2323.9752632,0.961
2324.9115956,0.9601
2325.847928,0.9591
2326.7842602,0.9585
2327.7205924,0.958
2328.6569246000004,0.958
2329.5932568000003,0.958
2330.529589,0.958
2331.4659212,0.958
2332.4022534,0.9571
2333.3385856,0.9561
2334.2749178,0.956
2335.21125,0.956
2336.1475824,0.956
2337.0839148,0.956
2338.0202471999996,0.9555
2338.9565795999997,0.955
2339.892912,0.955
2340.8292441999997,0.955
2341.7655763999996,0.955
2342.7019086,0.955
2343.6382408,0.955
2344.574573,0.955
2345.5109054,0.955
2346.4472378,0.955
2347.3835701999997,0.9555
2348.3199025999998,0.956
2349.256235,0.956
2350.1925671999998,0.956
2351.1288993999997,0.956
2352.0652316,0.956
2353.0015638,0.9569
2353.937896,0.9579
2354.8742284,0.9585
2355.8105608,0.959
2356.7468931999997,0.959
2357.6832256,0.959
2358.619558,0.9599
2359.5558902,0.9609
2360.4922223999997,0.9619
2361.4285546,0.9629
2362.3648868,0.9639
2363.301219,0.9649
2364.2375514,0.9664
2365.1738838,0.9679
2366.1102161999997,0.9685
2367.0465486,0.969
2367.982881,0.9704
2368.9192132,0.9719
2369.8555453999998,0.9729
2370.7918776,0.9739
2371.7282098,0.9745
2372.664542,0.975
2373.6008744,0.9755
2374.5372068,0.976
2375.4735392,0.9769
2376.4098716,0.9779
2377.346204,0.9785
2378.2825362,0.979
2379.2188684,0.9804
2380.1552006,0.9819
2381.0915328,0.9852
2382.027865,0.9887
2382.9641974,0.9899
2383.9005298,0.9909
2384.8368622,0.991
2385.7731946,0.991
2386.709527,0.9915
2387.6458592,0.992
2388.5821914,0.992
2389.5185236,0.992
2390.4548558,0.992
2391.391188,0.992
2392.3275204,0.9929
2393.2638528,0.9939
2394.2001852,0.994
2395.1365176,0.994
2396.07285,0.994
2397.0091822,0.994
2397.9455144,0.994
2398.8818466000002,0.994
2399.8181788,0.994
2400.754511,0.994
2401.6908434,0.994
2402.6271758000003,0.994
2403.5635082,0.994
2404.4998406,0.994
2405.436173,0.994
2406.3725052,0.994
2407.3088374,0.9931
2408.2451696000003,0.9921
2409.1815018,0.992
2410.117834,0.992
2411.0541664,0.992
2411.9904988000003,0.992
2412.9268312,0.992
2413.8631636,0.992
2414.799496,0.992
2415.7358282,0.992
2416.6721604,0.992
2417.6084926000003,0.992
2418.5448248000002,0.992
2419.481157,0.992
2420.4174892,0.992
2421.3538214,0.992
2422.2901536,0.992
2423.2264858,0.992
2424.162818,0.992
2425.0991504,0.992
2426.0354828,0.992
2426.9718152,0.992
2427.9081476,0.992
2428.84448,0.992
2429.7808122,0.9929
2430.7171444,0.9939
2431.6534766,0.9931
2432.5898088,0.9921
2433.526141,0.992
2434.4624734,0.992
2435.3988058,0.992
2436.3351381999996,0.992
2437.2714705999997,0.992
2438.207803,0.992
2439.1441351999997,0.992
2440.0804673999996,0.992
2441.0167996,0.992
2441.9531318,0.992
2442.889464,0.992
2443.8257964,0.992
2444.7621288,0.992
2445.6984611999997,0.992
2446.6347935999997,0.992
2447.571126,0.992
2448.5074581999997,0.992
2449.4437903999997,0.992
2450.3801226,0.992
2451.3164548,0.992
2452.252787,0.992
2453.1891194,0.992
2454.1254518,0.992
2455.0617841999997,0.992
2455.9981166,0.992
2456.934449,0.992
2457.8707812,0.992
2458.8071133999997,0.992
2459.7434456,0.992
2460.6797778,0.992
2461.61611,0.992
2462.5524424,0.992
2463.4887748,0.992
2464.4251071999997,0.992
2465.3614396,0.992
2466.297772,0.992
2467.2341042,0.992
2468.1704363999997,0.992
2469.1067686,0.992
2470.0431008,0.992
2470.979433,0.992
2471.9157654,0.992
2472.8520978,0.992
2473.7884301999998,0.992
2474.7247626,0.9916
2475.661095,0.9911
2476.5974272,0.991
2477.5337594,0.991
2478.4700916,0.991
2479.4064238,0.991
2480.342756,0.991
2481.2790884,0.991
2482.2154208,0.991
2483.1517532,0.991
2484.0880856,0.991
2485.024418,0.991
2485.9607502,0.991
2486.8970824,0.991
2487.8334146,0.991
2488.7697468,0.991
2489.706079,0.991
2490.6424114,0.991
2491.5787438,0.991
2492.5150762,0.991
2493.4514086,0.991
2494.387741,0.991
2495.3240732,0.991
2496.2604054,0.991
2497.1967376000002,0.991
2498.1330698,0.991
2499.069402,0.9914
2500.0057344,0.9919
2500.9420668000002,0.992
2501.8783992,0.992
2502.8147316,0.992
2503.751064,0.992
2504.6873962,0.992
2505.6237284,0.992
2506.5600606000003,0.992
2507.4963928,0.992
2508.432725,0.9929
2509.3690572,0.9939
2510.3053894,0.994
2511.2417216000003,0.994
2512.1780538000003,0.994
2513.114386,0.994
2514.0507184000003,0.994
2514.9870508000004,0.994
2515.9233832,0.994
2516.8597156,0.994
2517.796048,0.994
2518.7323802,0.994
2519.6687124,0.994
2520.6050446,0.994
2521.5413768,0.994
2522.477709,0.994
2523.4140414,0.994
2524.3503738,0.994
2525.2867062,0.994
2526.2230386,0.994
2527.159371,0.9931
2528.0957032,0.9921
2529.0320354,0.992
2529.9683676,0.992
2530.9046998,0.992
2531.841032,0.992
2532.7773644,0.992
2533.7136968,0.992
2534.6500291999996,0.992
2535.5863615999997,0.992
2536.522694,0.992
2537.4590261999997,0.992
2538.3953583999996,0.992
2539.3316906,0.992
2540.2680228,0.992
2541.204355,0.992
2542.1406874,0.992
2543.0770198,0.992
2544.0133521999996,0.9929
2544.9496845999997,0.9939
2545.886017,0.9931
2546.8223491999997,0.9921
2547.7586813999997,0.9929
2548.6950136,0.9939
2549.6313458,0.994
2550.567678,0.994
2551.5040104,0.994
2552.4403428,0.994
2553.3766751999997,0.994
2554.3130075999998,0.994
2555.24934,0.994
2556.1856721999998,0.994
2557.1220043999997,0.994
2558.0583366,0.994
2558.9946688,0.9944
2559.931001,0.9949
2560.8673334,0.995
2561.8036658,0.995
2562.7399981999997,0.995
2563.6763306,0.995
2564.612663,0.995
2565.5489952,0.995
2566.4853273999997,0.995
2567.4216596,0.995
2568.3579918,0.995
2569.294324,0.995
2570.2306564,0.995
2571.1669888,0.995
2572.1033211999998,0.995
2573.0396536,0.995
2573.975986,0.995
2574.9123182,0.995
2575.8486503999998,0.995
2576.7849826,0.995
2577.7213148,0.995
2578.657647,0.995
2579.5939794,0.995
2580.5303118,0.995
2581.4666442,0.995
2582.4029766,0.995
2583.339309,0.995
2584.2756412,0.995
2585.2119734,0.995
2586.1483056,0.995
2587.0846378,0.995
2588.02097,0.995
2588.9573022,0.995
2589.8936344,0.995
2590.8299666000003,0.995
2591.7662988,0.995
2592.702631,0.995
2593.6389634,0.995
2594.5752958000003,0.995
2595.5116282,0.995
2596.4479606,0.995
2597.384293,0.995
2598.3206252,0.995
2599.2569574,0.995
2600.1932896000003,0.995
2601.1296218,0.995
2602.065954,0.995
2603.0022864000002,0.995
2603.9386188000003,0.995
2604.8749512,0.995
2605.8112836,0.995
2606.747616,0.995
2607.6839482,0.995
2608.6202804,0.995
2609.5566126000003,0.995
2610.4929448000003,0.995
2611.429277,0.995
2612.3656094000003,0.995
2613.3019418000003,0.9946
2614.2382742,0.9941
2615.1746066,0.994
2616.110939,0.994
2617.0472712,0.994
2617.9836034,0.994
2618.9199356000004,0.994
2619.8562678000003,0.994
2620.7926,0.9931
2621.7289324000003,0.9921
2622.6652648000004,0.992
2623.6015972,0.992
2624.5379296,0.992
2625.474262,0.992
2626.4105942,0.992
2627.3469264,0.992
2628.2832586,0.9929
2629.2195908,0.9939
2630.155923,0.994
2631.0922554,0.994
2632.0285878,0.994
2632.9649202,0.994
2633.9012526,0.9932
2634.837585,0.9922
2635.7739172,0.992
2636.7102494,0.992
2637.6465816,0.992
2638.5829138,0.992
2639.519246,0.992
2640.4555784,0.992
2641.3919108,0.9929
2642.3282431999996,0.9939
2643.2645755999997,0.9944
2644.200908,0.9949
2645.1372401999997,0.995
2646.0735723999996,0.995
2647.0099046,0.995
2647.9462368,0.995
2648.882569,0.995
2649.8189014,0.995
2650.7552338,0.9946
2651.6915661999997,0.9941
2652.6278985999998,0.994
2653.564231,0.994
2654.5005631999998,0.994
2655.4368953999997,0.994
2656.3732276,0.994
2657.3095598,0.994
2658.245892,0.994
2659.1822244,0.994
2660.1185568,0.994
2661.0548891999997,0.994
2661.9912216,0.9931
2662.927554,0.9921
2663.8638862,0.992
2664.8002183999997,0.992
2665.7365506,0.992
2666.6728828,0.992
2667.609215,0.992
2668.5455474,0.992
2669.4818798,0.992
2670.4182121999997,0.992
2671.3545446,0.9928
2672.290877,0.9938
2673.2272092,0.994
2674.1635413999998,0.994
2675.0998736,0.994
2676.0362058,0.994
2676.972538,0.994
2677.9088702,0.994
2678.8452024,0.994
2679.7815346,0.994
2680.7178668,0.994
2681.654199,0.994
2682.5905314,0.994
2683.5268638000002,0.994
2684.4631962,0.994
2685.3995286,0.994
2686.335861,0.994
2687.2721932,0.994
2688.2085254,0.9944
2689.1448576000003,0.9949
2690.0811898,0.995
2691.017522,0.995
2691.9538544,0.995
2692.8901868000003,0.995
2693.8265192,0.995
2694.7628516,0.995
2695.699184,0.995
2696.6355162,0.995
2697.5718484,0.995
2698.5081806000003,0.995
2699.4445128,0.995
2700.380845,0.995
2701.3171774,0.995
2702.2535098000003,0.995
2703.1898422,0.995
2704.1261746,0.995
2705.062507,0.995
2705.9988392,0.995
2706.9351714,0.995
2707.8715036000003,0.995
2708.8078358000002,0.995
2709.744168,0.995
2710.6805004000003,0.995
2711.6168328000003,0.995
2712.5531652,0.995
2713.4894976,0.995
2714.42583,0.995
2715.3621622,0.995
2716.2984944,0.995
2717.2348266000004,0.995
2718.1711588000003,0.995
2719.107491,0.995
2720.0438234000003,0.995
2720.9801558000004,0.995
2721.9164882,0.995
2722.8528206,0.995
2723.789153,0.995
2724.7254852,0.995
2725.6618174,0.995
2726.5981496,0.995
2727.5344818,0.995
2728.470814,0.995
2729.4071464,0.995
2730.3434788,0.995
2731.2798112,0.995
2732.2161436,0.995
2733.152476,0.995
2734.0888082,0.995
2735.0251404,0.995
2735.9614726,0.995
2736.8978048,0.995
2737.834137,0.995
2738.7704694,0.995
2739.7068018,0.995
2740.6431341999996,0.995
2741.5794665999997,0.995
2742.515799,0.995
2743.4521311999997,0.995
2744.3884633999996,0.995
2745.3247956,0.995
2746.2611278,0.995
2747.19746,0.995
2748.1337924,0.995
2749.0701248,0.995
2750.0064571999997,0.995
2750.9427895999997,0.995
2751.879122,0.995
2752.8154541999997,0.995
2753.7517863999997,0.995
2754.6881186,0.995
2755.6244508,0.995
2756.560783,0.995
2757.4971152,0.995
2758.4334473999997,0.995
2759.3697796,0.995
2760.3061118,0.995
2761.242444,0.995
2762.1787764,0.995
2763.1151088,0.995
2764.0514411999998,0.995
2764.9877736,0.995
2765.924106,0.995
2766.8604382,0.995
2767.7967704,0.995
2768.7331026,0.995
2769.6694348,0.995
2770.605767,0.995
2771.5420994,0.995
2772.4784318,0.995
2773.4147642,0.995
2774.3510966,0.9946
2775.287429,0.9941
2776.2237612,0.994
2777.1600934,0.994
2778.0964256,0.994
2779.0327578,0.994
2779.96909,0.994
2780.9054224,0.994
2781.8417548,0.994
2782.7780872,0.994
2783.7144196,0.9932
2784.650752,0.9922
2785.5870842,0.992
2786.5234164,0.992
2787.4597486000002,0.992
2788.3960808,0.992
2789.332413,0.992
2790.2687454,0.992
2791.2050778000003,0.9916
2792.1414102,0.9911
2793.0777426,0.991
2794.014075,0.991
2794.9504072,0.991
2795.8867394,0.991
2796.8230716000003,0.991
2797.7594038,0.991
2798.695736,0.991
2799.6320684,0.991
2800.5684008000003,0.991
2801.5047332,0.991
2802.4410656,0.991
2803.377398,0.991
2804.3137302,0.991
2805.2500624,0.991
2806.1863946000003,0.991
2807.1227268000002,0.991
2808.059059,0.991
2808.9953914000002,0.991
2809.9317238000003,0.991
2810.8680562,0.991
2811.8043886,0.991
2812.740721,0.991
2813.6770532,0.991
2814.6133854,0.991
2815.5497176000003,0.991
2816.4860498000003,0.991
2817.422382,0.991
2818.3587144000003,0.991
2819.2950468000004,0.9914
2820.2313792,0.9919
2821.1677116,0.992
2822.104044,0.992
2823.0403762,0.992
2823.9767084,0.992
2824.9130406,0.9928
2825.8493728,0.9938
2826.785705,0.994
2827.7220374,0.994
2828.6583698,0.994
2829.5947022,0.994
2830.5310346,0.9944
2831.467367,0.9949
2832.4036992,0.995
2833.3400314,0.995
2834.2763636,0.995
2835.2126958,0.995
2836.149028,0.995
2837.0853604,0.995
2838.0216928,0.9958
2838.9580251999996,0.9968
2839.8943575999997,0.997
2840.83069,0.997
2841.7670221999997,0.9974
2842.7033543999996,0.9979
2843.6396866,0.998
2844.5760188,0.998
2845.512351,0.9988
2846.4486832,0.9998
2847.3850153999997,1.0
2848.3213476,1.0
2849.2576798,1.0
2850.194012,1.0
2851.1303444,0.9992
2852.0666768,0.9982
2853.0030091999997,0.9976
2853.9393416,0.9971
2854.875674,0.995
2855.8120062,0.9925
2856.7483383999997,0.9916
2857.6846706,0.9911
2858.6210028,0.9902
2859.557335,0.9892
2860.4936674,0.989
2861.4299998,0.989
2862.3663321999998,0.989
2863.3026646,0.989
2864.238997,0.989
2865.1753292,0.989
2866.1116614,0.989
2867.0479936,0.989
2867.9843258,0.989
2868.920658,0.989
2869.8569904,0.989
2870.7933228,0.989
2871.7296552,0.989
2872.6659876,0.989
2873.60232,0.989
2874.5386522,0.989
2875.4749844,0.989
2876.4113166,0.989
2877.3476488,0.989
2878.283981,0.989
2879.2203134,0.989
2880.1566458,0.989
2881.0929782,0.989
2882.0293106,0.989
2882.965643,0.989
2883.9019752,0.989
2884.8383074,0.9898
2885.7746396000002,0.9908
2886.7109718,0.991
2887.647304,0.991
2888.5836364,0.991
2889.5199688000002,0.991
2890.4563012,0.991
2891.3926336,0.991
2892.328966,0.9914
2893.2652982,0.9919
2894.2016304,0.9916
2895.1379626000003,0.9911
2896.0742948,0.991
2897.010627,0.991
2897.9469594,0.991
2898.8832918000003,0.991
2899.8196242,0.991
2900.7559566,0.991
2901.692289,0.9922
2902.6286212,0.9937
2903.5649534,0.9944
2904.5012856000003,0.9949
2905.4376178,0.995
2906.37395,0.995
2907.3102824000002,0.9962
2908.2466148000003,0.9977
2909.1829472,0.9988
2910.1192796,0.9998
2911.055612,1.0
2911.9919442,1.0
2912.9282764,1.0
2913.8646086000003,1.0
2914.8009408000003,1.0
2915.737273,1.0
2916.6736054000003,0.9992
2917.6099378000004,0.9982
2918.5462702,0.9976
2919.4826026,0.9971
2920.418935,0.995
2921.3552672,0.9925
2922.2915994,0.9904
2923.2279316000004,0.9884
2924.1642638000003,0.9856
2925.100596,0.9826
2926.0369284000003,0.9816
2926.9732608000004,0.9811
2927.9095932,0.981
2928.8459256,0.981
2929.782258,0.9802
2930.7185902,0.9792
2931.6549224,0.9786
2932.5912546,0.9781
2933.5275868,0.978
2934.463919,0.978
2935.4002511999997,0.978
2936.3365833999997,0.978
2937.2729156,0.978
2938.2092478,0.978
2939.14558,0.978
2940.0819124,0.978
2941.0182448,0.978
2941.9545771999997,0.978
2942.8909095999998,0.9784
2943.827242,0.9789
2944.7635741999998,0.979
2945.6999063999997,0.979
2946.6362386,0.979
2947.5725708,0.979
2948.508903,0.979
2949.4452354,0.979
2950.3815678,0.979
2951.3179001999997,0.979
2952.2542326,0.979
2953.190565,0.979
2954.1268972,0.9798
2955.0632293999997,0.9808
2955.9995616,0.981
2956.9358938,0.981
2957.872226,0.981
2958.8085584,0.981
2959.7448908,0.981
2960.6812231999997,0.981
2961.6175556,0.981
2962.553888,0.981
2963.4902202,0.981
2964.4265523999998,0.981
2965.3628846,0.981
2966.2992168,0.981
2967.235549,0.9814
2968.1718814,0.9819
2969.1082138,0.982
2970.0445462,0.982
2970.9808786,0.9828
2971.917211,0.9838
2972.8535432,0.9844
2973.7898754,0.9849
2974.7262076,0.985
2975.6625398,0.985
2976.598872,0.9858
2977.5352044,0.9868
2978.4715368,0.987
2979.4078692,0.987
2980.3442016,0.987
2981.280534,0.987
2982.2168662,0.9874
2983.1531984,0.9879
2984.0895306,0.9884
2985.0258628,0.9889
2985.962195,0.9898
2986.8985274,0.9908
2987.8348598000002,0.991
2988.7711922,0.991
2989.7075246,0.991
2990.643857,0.991
2991.5801892,0.991
2992.5165214,0.991
2993.4528536000003,0.9914
2994.3891858,0.9919
2995.325518,0.992
2996.2618504,0.992
2997.1981828000003,0.992
2998.1345152,0.992
2999.0708476,0.992
3000.00718,0.992
3000.9435122,0.992
3001.8798444,0.992
3002.8161766000003,0.992
3003.7525088,0.992
3004.688841,0.9916
3005.6251734,0.9911
3006.5615058000003,0.9902
3007.4978382,0.9892
3008.4341706,0.989
3009.370503,0.989
3010.3068352,0.989
3011.2431674,0.989
3012.1794996000003,0.9898
3013.1158318000003,0.9908
3014.052164,0.9902
3014.9884962,0.9892
3015.9248284,0.989
3016.8611606,0.989
3017.7974928,0.989
3018.733825,0.989
3019.6701574,0.989
3020.6064898,0.989
3021.5428222,0.989
3022.4791546,0.989
3023.415487,0.9898
3024.3518192,0.9908
3025.2881514,0.991
3026.2244836,0.991
3027.1608158,0.991
3028.097148,0.991
3029.0334804,0.991
3029.9698128,0.991
3030.9061451999996,0.991
3031.8424775999997,0.991
3032.77881,0.991
3033.7151421999997,0.991
3034.6514743999996,0.991
3035.5878066,0.991
3036.5241388,0.9902
3037.460471,0.9892
3038.3968034,0.989
3039.3331358,0.989
3040.2694681999997,0.989
3041.2058005999997,0.989
3042.142133,0.989
3043.0784651999998,0.989
3044.0147973999997,0.989
3044.9511296,0.989
3045.8874618,0.9898
3046.823794,0.9908
3047.7601264,0.991
3048.6964588,0.991
3049.6327911999997,0.991
3050.5691236,0.991
3051.505456,0.991
3052.4417882,0.991
3053.3781203999997,0.991
3054.3144526,0.991
3055.2507848,0.9902
3056.187117,0.9892
3057.1234494,0.9898
3058.0597818,0.9908
3058.9961141999997,0.991
3059.9324466,0.991
3060.868779,0.9914
3061.8051112,0.9919
3062.7414433999998,0.992
3063.6777756,0.992
3064.6141078,0.992
3065.55044,0.992
3066.4867724,0.9928
3067.4231048,0.9938
3068.3594372,0.994
3069.2957696,0.994
3070.232102,0.994
3071.1684342,0.994
3072.1047664,0.994
3073.0410986,0.994
3073.9774308,0.994
3074.913763,0.994
3075.8500954,0.994
3076.7864278,0.994
3077.7227602,0.994
3078.6590926,0.994
3079.595425,0.994
3080.5317572,0.994
3081.4680894,0.994
3082.4044216,0.994
3083.3407538,0.994
3084.277086,0.994
3085.2134184,0.994
3086.1497508,0.994
3087.0860832,0.994
3088.0224156,0.994
3088.958748,0.994
3089.8950802,0.994
3090.8314124,0.994
3091.7677446000002,0.994
3092.7040768,0.994
3093.640409,0.994
3094.5767414,0.994
3095.5130738000003,0.994
3096.4494062,0.9944
3097.3857386,0.9949
3098.322071,0.995
3099.2584032,0.995
3100.1947354,0.995
3101.1310676000003,0.995
3102.0673998,0.995
3103.003732,0.995
3103.9400642,0.995
3104.8763964,0.995
3105.8127286000004,0.995
3106.7490608000003,0.995
3107.685393,0.995
3108.6217254000003,0.995
3109.5580578000004,0.995
3110.4943902,0.995
3111.4307226,0.995
3112.367055,0.995
3113.3033872,0.995
3114.2397194,0.995
3115.1760516,0.995
3116.1123838,0.995
3117.048716,0.995
3117.9850484,0.995
3118.9213808,0.9957
3119.8577132,0.9967
3120.7940456,0.997
3121.730378,0.997
3122.6667102,0.997
3123.6030424,0.997
3124.5393746,0.997
3125.4757068,0.997
3126.412039,0.997
3127.3483714,0.997
3128.2847038,0.997
3129.2210361999996,0.997
3130.1573685999997,0.997
3131.093701,0.997
3132.0300331999997,0.997
3132.9663653999996,0.997
3133.9026976,0.997
3134.8390298,0.997
3135.775362,0.997
3136.7116944,0.997
3137.6480268,0.997
3138.5843591999997,0.997
3139.5206915999997,0.997
3140.457024,0.997
3141.3933561999997,0.997
3142.3296883999997,0.997
3143.2660206,0.9974
3144.2023528,0.9979
3145.138685,0.998
3146.0750174,0.998
3147.0113498,0.998
3147.9476821999997,0.998
3148.8840146,0.998
3149.820347,0.998
3150.7566792,0.998
3151.6930113999997,0.998
3152.6293436,0.998
3153.5656758,0.998
3154.502008,0.998
3155.4383404,0.998
3156.3746728,0.998
3157.3110051999997,0.998
3158.2473376,0.998
3159.18367,0.998
3160.1200022,0.998
3161.0563343999997,0.998
3161.9926666,0.998
3162.9289988,0.998
3163.865331,0.998
3164.8016634,0.998
3165.7379958,0.998
3166.6743281999998,0.998
3167.6106606,0.998
3168.546993,0.998
3169.4833252,0.998
3170.4196574,0.998
3171.3559896,0.998
3172.2923218,0.998
3173.228654,0.998
3174.1649864,0.998
3175.1013188,0.998
3176.0376512,0.998
3176.9739836,0.998
3177.910316,0.998
3178.8466482,0.998
3179.7829804,0.998
3180.7193126,0.998
3181.6556448,0.998
3182.591977,0.998
3183.5283092,0.998
3184.4646414,0.998
3185.4009736000003,0.998
3186.3373058,0.998
3187.273638,0.998
3188.2099704,0.998
3189.1463028000003,0.998
3190.0826352,0.998
3191.0189676,0.998
3191.9553,0.998
3192.8916322,0.998
3193.8279644,0.998
3194.7642966000003,0.998
3195.7006288000002,0.998
3196.636961,0.998
3197.5732934000002,0.998
3198.5096258000003,0.998
3199.4459582,0.9987
3200.3822906,0.9997
3201.318623,1.0
3202.2549552,1.0
3203.1912874,1.0
3204.1276196000003,1.0
3205.0639518000003,1.0
3206.000284,1.0
3206.9366164000003,1.0
3207.8729488000004,1.0
3208.8092812,0.9993
3209.7456136,0.9983
3210.681946,0.998
3211.6182782,0.998
3212.5546104,0.998
3213.4909426,0.998
3214.4272748,0.998
3215.363607,0.998
3216.2999394,0.998
3217.2362718,0.998
3218.1726042,0.998
3219.1089366,0.998
3220.045269,0.998
3220.9816012,0.998
3221.9179334,0.9987
3222.8542656,0.9997
3223.7905978,1.0
3224.72693,1.0
3225.6632624,1.0
3226.5995948,1.0
3227.5359272,1.0
3228.4722596,1.0
3229.408592,1.0
3230.3449242,1.0
3231.2812564,1.0
3232.2175886,1.0
3233.1539208,1.0
3234.090253,1.0
3235.0265854,1.0
3235.9629178,1.0
3236.8992501999996,1.0
3237.8355825999997,1.0
3238.771915,1.0
3239.7082471999997,1.0
3240.6445793999997,1.0
3241.5809116,1.0
3242.5172438,1.0
3243.453576,1.0
3244.3899084,1.0
3245.3262408,1.0
3246.2625731999997,1.0
3247.1989055999998,1.0
3248.135238,1.0
3249.0715701999998,1.0
3250.0079023999997,1.0
3250.9442346,1.0
3251.8805668,1.0
3252.816899,1.0
3253.7532314,0.9993
3254.6895638,0.9983
3255.6258961999997,0.998
3256.5622286,0.998
3257.498561,0.9976
3258.4348932,0.9971
3259.3712253999997,0.997
3260.3075576,0.997
3261.2438898,0.9981
3262.180222,0.9996
3263.1165544,1.0
3264.0528868,1.0
3264.9892191999998,1.0
3265.9255516,1.0
3266.861884,1.0
3267.7982162,1.0
3268.7345483999998,1.0
3269.6708806,1.0
3270.6072128,1.0
3271.543545,1.0
3272.4798772,1.0
3273.4162094,1.0
3274.3525416,1.0
3275.2888738,1.0
3276.225206,1.0
3277.1615384,1.0
3278.0978708000002,1.0
3279.0342032,1.0
3279.9705356,1.0
3280.906868,1.0
3281.8432002,1.0
3282.7795324,1.0
3283.7158646000003,1.0
3284.6521968,1.0
3285.588529,1.0
3286.5248614,1.0
3287.4611938000003,1.0
3288.3975262,1.0
3289.3338586,1.0
3290.270191,1.0
3291.2065232,1.0
3292.1428554,1.0
3293.0791876000003,1.0
3294.0155198,1.0
3294.951852,1.0
3295.8881844000002,1.0
3296.8245168000003,1.0
3297.7608492,1.0
3298.6971816,1.0
3299.633514,1.0
3300.5698462,1.0004
3301.5061784,1.0009
3302.4425106000003,1.001
3303.3788428000003,1.001
3304.315175,1.0007
3305.2515074000003,1.0002
3306.1878398000003,1.0
3307.1241722,1.0
3308.0605046,1.0
3308.996837,1.0
3309.9331692,1.0004
3310.8695014,1.0009
3311.8058336000004,1.001
3312.7421658000003,1.001
3313.678498,1.0006
3314.6148304000003,1.0001
3315.5511628000004,1.0
3316.4874952,1.0
3317.4238276,1.0
3318.36016,1.0
3319.2964922,1.0004
3320.2328244,1.0009
3321.1691566,1.001
3322.1054888,1.001
3323.041821,1.0007
3323.9781534,1.0002
3324.9144858,1.0
3325.8508182,1.0
3326.7871506,1.0
3327.723483,1.0
3328.6598152,1.0
3329.5961474,1.0
3330.5324796,1.0
3331.4688118,1.0
3332.405144,1.0
3333.3414764,1.0
3334.2778088,1.0
3335.2141411999996,1.0
3336.1504735999997,1.0
3337.086806,1.0
3338.0231381999997,1.0
3338.9594703999996,1.0
3339.8958026,1.0004
3340.8321348,1.0009
3341.768467,1.001
3342.7047994,1.001
3343.6411318,1.001
3344.5774641999997,1.001
3345.5137965999998,1.001
3346.450129,1.001
3347.3864611999998,1.001
3348.3227933999997,1.001
3349.2591256,1.001
3350.1954578,1.001
3351.13179,1.0007
3352.0681224,1.0002
3353.0044548,1.0
3353.9407871999997,1.0
3354.8771196,1.0
3355.813452,1.0
3356.7497842,1.0
3357.6861163999997,1.0
3358.6224486,1.0
3359.5587808,1.0
3360.495113,1.0
3361.4314452,1.0
3362.3677774,1.0
3363.3041096,1.0
3364.2404418,1.0
3365.176774,1.0
3366.1131064,1.0
3367.0494388,1.0
3367.9857712,1.0
3368.9221036,1.0
3369.858436,1.0
3370.7947682,1.0
3371.7311004,1.0004
3372.6674326,1.0009
3373.6037648,1.001
3374.540097,1.001
3375.4764294,1.001
3376.4127618,1.001
3377.3490942,1.001
3378.2854266,1.001
3379.221759,1.001
3380.1580912,1.001
3381.0944234,1.001
3382.0307556000002,1.001
3382.9670878,1.001
3383.90342,1.001
3384.8397524,1.001
3385.7760848000003,1.001
3386.7124172,1.001
3387.6487496,1.001
3388.585082,1.001
3389.5214142,1.001
3390.4577464,1.001
3391.3940786000003,1.001
3392.3304108,1.001
3393.266743,1.001
3394.2030754,1.001
3395.1394078000003,1.001
3396.0757402,1.001
3397.0120726,1.001
3397.948405,1.001
3398.8847372,1.001
3399.8210694,1.001
3400.7574016000003,1.001
3401.6937338000002,1.001
3402.630066,1.001
3403.5663984000003,1.001
3404.5027308000003,1.001
3405.4390632,1.001
3406.3753956,1.001
3407.311728,1.001
3408.2480602,1.001
3409.1843924,1.001
3410.1207246000004,1.001
3411.0570568000003,1.001
3411.993389,1.001
3412.9297214000003,1.001
3413.8660538000004,1.001
3414.8023862,1.001
3415.7387186,1.001
3416.675051,1.001
3417.6113832,1.001
3418.5477154,1.001
3419.4840476,1.001
3420.4203798,1.0007
3421.356712,1.0002
3422.2930444,1.0
3423.2293768,1.0
3424.1657092,1.0004
3425.1020416,1.0009
3426.038374,1.001
3426.9747062,1.001
3427.9110384,1.001
3428.8473706,1.001
3429.7837028,1.001
3430.720035,1.001
3431.6563674,1.001
3432.5926998,1.001
3433.5290321999996,1.001
3434.4653645999997,1.001
3435.401697,1.001
3436.3380291999997,1.001
3437.2743613999996,1.001
3438.2106936,1.001
3439.1470258,1.001
3440.083358,1.001
3441.0196902,1.001
3441.9560223999997,1.001
3442.8923546,1.001
3443.8286868,1.001
3444.765019,1.001
3445.7013514,1.001
3446.6376838,1.001
3447.5740161999997,1.001
3448.5103486,1.0007
3449.446681,1.0002
3450.3830132,1.0
3451.3193453999997,1.0
3452.2556776,1.0
3453.1920098,1.0
3454.128342,1.0
3455.0646744,1.0
3456.0010068,1.0
3456.9373391999998,1.0
3457.8736716,1.0
3458.810004,1.0
3459.7463362,1.0
3460.6826684,1.0
3461.6190006,1.0
3462.5553328,1.0
3463.491665,1.0
3464.4279974,1.0
3465.3643298,1.0
3466.3006622,1.0
3467.2369946,1.0
3468.173327,1.0
3469.1096592,1.0
3470.0459914,1.0
3470.9823236,1.0
3471.9186558,1.0
3472.854988,1.0
3473.7913204,1.0
3474.7276528,1.0
3475.6639852,1.0
3476.6003176,1.0
3477.53665,1.0
3478.4729822,1.0
3479.4093144,1.0
3480.3456466000002,1.0
3481.2819788,1.0
3482.218311,1.0
3483.1546434,1.0
3484.0909758000003,1.0
3485.0273082,1.0
3485.9636406,1.0
3486.899973,1.0
3487.8363052,1.0
3488.7726374,1.0
3489.7089696000003,1.0
3490.6453018,1.0
3491.581634,1.0
3492.5179664,1.0
3493.4542988000003,1.0
3494.3906312,1.0
3495.3269636,1.0
3496.263296,1.0
3497.1996282,1.0
3498.1359604,1.0
3499.0722926000003,1.0
3500.0086248000002,1.0
3500.944957,1.0
3501.8812894000002,1.0
3502.8176218000003,0.9993
3503.7539542,0.9983
3504.6902866,0.998
3505.626619,0.998
3506.5629512,0.998
3507.4992834,0.998
3508.4356156000003,0.998
3509.3719478000003,0.998
3510.30828,0.998
3511.2446124000003,0.998
3512.1809448000004,0.9987
3513.1172772,0.9997
3514.0536096,1.0
3514.989942,1.0
3515.9262742,1.0003
3516.8626064,1.0008
3517.7989386,1.001
3518.7352708,1.001
3519.671603,1.001
3520.6079354,1.001
3521.5442678,1.001
3522.4806002,1.001
3523.4169326,1.001
3524.353265,1.001
3525.2895972,1.001
3526.2259294,1.001
3527.1622616,1.001
3528.0985938,1.001
3529.034926,1.001
3529.9712581999997,1.001
3530.9075903999997,1.001
3531.8439226,1.001
3532.7802548,1.0007
3533.716587,1.0002
3534.6529194,1.0
3535.5892518,1.0
3536.5255841999997,1.0
3537.4619165999998,1.0
3538.398249,1.0
3539.3345812,1.0
3540.2709133999997,1.0
3541.2072456,1.0
3542.1435778,1.0
3543.07991,1.0
3544.0162424,1.0
3544.9525748,1.0
3545.8889071999997,1.0
3546.8252396,1.0
3547.761572,1.0
3548.6979042,1.0
3549.6342363999997,0.9994
3550.5705686,0.9984
3551.5069008,0.998
3552.443233,0.998
3553.3795654,0.998
3554.3158978,0.998
3555.2522301999998,0.998
3556.1885626,0.998
3557.124895,0.9977
3558.0612272,0.9972
3558.9975594,0.997
3559.9338916,0.997
3560.8702238,0.997
3561.806556,0.997
3562.7428884,0.997
3563.6792208,0.997
3564.6155532,0.9964
3565.5518856,0.9954
3566.488218,0.995
3567.4245502,0.995
3568.3608824,0.995
3569.2972146,0.995
3570.2335468,0.995
3571.169879,0.995
3572.1062114,0.995
3573.0425438,0.995
3573.9788762,0.995
3574.9152086,0.995
3575.851541,0.9947
3576.7878732,0.9942
3577.7242054,0.994
3578.6605376,0.994
3579.5968698,0.994
3580.533202,0.994
3581.4695344,0.994
3582.4058668000002,0.994
3583.3421992,0.994
3584.2785316,0.994
3585.214864,0.994
3586.1511962,0.994
3587.0875284,0.994
3588.0238606000003,0.994
3588.9601928,0.994
3589.896525,0.994
3590.8328574,0.9934
3591.7691898000003,0.9923
3592.7055222,0.992
3593.6418546,0.992
3594.578187,0.992
3595.5145192,0.992
3596.4508514,0.992
3597.3871836000003,0.992
3598.3235158,0.992
3599.259848,0.992
3600.1961804000002,0.992
3601.1325128000003,0.992
3602.0688452,0.992
3603.0051776,0.992
3603.94151,0.992
3604.8778422,0.992
3605.8141744,0.992
3606.7505066000003,0.992
3607.6868388000003,0.992
3608.623171,0.992
3609.5595032,0.9926
3610.4958354,0.9936
3611.4321676,0.9933
3612.3684998,0.9924
3613.304832,0.992
3614.2411644,0.992
3615.1774968,0.992
3616.1138292,0.992
3617.0501616,0.992
3617.986494,0.992
3618.9228262,0.992
3619.8591584,0.992
3620.7954906,0.992
3621.7318228,0.992
3622.668155,0.9926
3623.6044874,0.9936
3624.5408198,0.994
3625.4771521999996,0.994
3626.4134845999997,0.994
3627.349817,0.994
3628.2861491999997,0.9934
3629.2224813999997,0.9924
3630.1588136,0.992
3631.0951458,0.992
3632.031478,0.992
3632.9678104,0.992
3633.9041428,0.992
3634.8404751999997,0.992
3635.7768075999998,0.9926
3636.71314,0.9936
3637.6494721999998,0.9943
3638.5858043999997,0.9948
3639.5221366,0.995
3640.4584688,0.995
3641.394801,0.995
3642.3311334,0.995
3643.2674658,0.995
3644.2037981999997,0.995
3645.1401306,0.995
3646.076463,0.995
3647.0127952,0.995
3647.9491273999997,0.995
3648.8854596,0.995
3649.8217918,0.995
3650.758124,0.995
3651.6944564,0.995
3652.6307888,0.9947
3653.5671211999997,0.9942
3654.5034536,0.994
3655.439786,0.994
3656.3761182,0.9934
3657.3124503999998,0.9924
3658.2487826,0.992
3659.1851148,0.992
3660.121447,0.992
3661.0577794,0.992
3661.9941118,0.992
3662.9304442,0.992
3663.8667766,0.992
3664.803109,0.992
3665.7394412,0.992
3666.6757734,0.992
3667.6121056,0.992
3668.5484378,0.992
3669.48477,0.992
3670.4211024,0.992
3671.3574348,0.9917
3672.2937672,0.9912
3673.2300996,0.991
3674.166432,0.991
3675.1027642,0.9904
3676.0390964,0.9894
3676.9754286,0.989
3677.9117608,0.989
3678.848093,0.989
3679.7844254,0.989
3680.7207578000002,0.989
3681.6570902,0.989
3682.5934226,0.989
3683.529755,0.989
3684.4660872,0.989
3685.4024194,0.989
3686.3387516000003,0.989
3687.2750838,0.989
3688.211416,0.9896
3689.1477484,0.9906
3690.0840808000003,0.991
3691.0204132,0.991
3691.9567456,0.991
3692.893078,0.991
3693.8294102,0.991
3694.7657424,0.991
3695.7020746000003,0.9913
3696.6384068,0.9918
3697.574739,0.992
3698.5110712,0.992
3699.4474034,0.9926
3700.3837356000004,0.9936
3701.3200678000003,0.9943
3702.2564,0.9948
3703.1927324000003,0.9956
3704.1290648000004,0.9966
3705.0653972,0.9964
3706.0017296,0.9954
3706.938062,0.995
3707.8743942,0.995
3708.8107264,0.995
3709.7470586,0.995
3710.6833908,0.995
3711.619723,0.995
3712.5560554,0.9947
3713.4923878,0.9942
3714.4287202,0.994
3715.3650526,0.994
3716.301385,0.994
3717.2377172,0.994
3718.1740494,0.9934
3719.1103816,0.9924
3720.0467138,0.992
3720.983046,0.992
3721.9193784,0.992
3722.8557108,0.992
3723.7920431999996,0.992
3724.7283755999997,0.992
3725.664708,0.992
3726.6010401999997,0.992
3727.5373723999996,0.9926
3728.4737046,0.9936
3729.4100368,0.994
3730.346369,0.994
3731.2827014,0.9943
3732.2190338,0.9948
3733.1553661999997,0.995
3734.0916985999997,0.995
3735.028031,0.995
3735.9643631999998,0.995
3736.9006953999997,0.9959
3737.8370276,0.9974
3738.7733598,0.998
3739.709692,0.998
3740.6460244,0.998
3741.5823568,0.998
3742.5186891999997,0.998
3743.4550216,0.998
3744.391354,0.998
3745.3276862,0.998
3746.2640183999997,0.998
3747.2003506,0.998
3748.1366828,0.9986
3749.073015,0.9996
3750.0093474,1.0
3750.9456798,1.0
3751.8820121999997,1.0
3752.8183446,1.0
3753.754677,1.0
3754.6910092,1.0
3755.6273413999998,0.9994
3756.5636736,0.9984
3757.5000058,0.9977
3758.436338,0.9972
3759.3726704,0.9964
3760.3090028,0.9954
3761.2453351999998,0.995
3762.1816676,0.995
3763.118,0.9956
3764.0543322,0.9966
3764.9906644,0.9973
3765.9269966,0.9978
3766.8633288,0.998
3767.799661,0.998
3768.7359934,0.998
3769.6723258,0.998
3770.6086582,0.998
3771.5449906,0.998
3772.481323,0.998
3773.4176552,0.998
3774.3539874,0.9977
3775.2903196,0.9972
3776.2266518,0.997
3777.162984,0.997
3778.0993164,0.997
3779.0356488,0.997
3779.9719812,0.997
3780.9083136,0.997
3781.844646,0.997
3782.7809782,0.997
3783.7173104,0.997
3784.6536426000002,0.997
3785.5899748,0.9964
3786.526307,0.9954
3787.4626392,0.995
3788.3989714,0.995
3789.3353036000003,0.995
3790.2716358000002,0.995
3791.207968,0.995
3792.1443004000002,0.995
3793.0806328000003,0.995
3794.0169652,0.995
3794.9532976,0.995
3795.88963,0.995
3796.8259622,0.995
3797.7622944,0.995
3798.6986266000004,0.995
3799.6349588000003,0.995
3800.571291,0.995
3801.5075273333337,0.995
3802.4437636666667,0.995
3803.38,0.995
