458.879,0.973
459.81358240000003,0.973
460.74816480000004,0.972
461.6827472,0.972
462.6173296,0.972
463.551912,0.972
464.4864944,0.973
465.42107680000004,0.973
466.3556592,0.973
467.2902416,0.973
468.224824,0.975
469.15940620000003,0.975
470.0939884,0.976
471.0285706,0.976
471.9631528,0.978
472.897735,0.978
473.8323174,0.978
474.76689980000003,0.979
475.7014822,0.979
476.6360646,0.979
477.570647,0.979
478.5052294,0.979
479.43981180000003,0.978
480.3743942,0.978
481.3089766,0.976
482.243559,0.976
483.1781414,0.975
484.1127238,0.975
485.0473062,0.975
485.9818886,0.975
486.916471,0.975
487.8510534,0.975
488.7856358,0.975
489.7202182,0.975
490.6548006,0.975
491.589383,0.975
492.5239654,0.975
493.4585478,0.975
494.3931302,0.973
495.3277126,0.973
496.262295,0.973
497.1968772,0.973
498.1314594,0.973
499.0660416,0.973
500.00062379999997,0.971
500.935206,0.971
501.8697884,0.971
502.8043708,0.969
503.73895319999997,0.969
504.6735356,0.969
505.608118,0.969
506.5427004,0.968
507.4772828,0.966
508.41186519999997,0.966
509.3464476,0.966
510.28103,0.965
511.2156124,0.963
512.1501948,0.963
513.0847772,0.963
514.0193596,0.962
514.953942,0.962
515.8885243999999,0.962
516.8231068,0.962
517.7576892,0.963
518.6922716,0.963
519.626854,0.965
520.5614363999999,0.965
521.4960188,0.966
522.4306012,0.966
523.3651836,0.966
524.299766,0.966
525.2343482,0.966
526.1689304,0.966
527.1035125999999,0.965
528.0380948,0.965
528.972677,0.965
529.9072593999999,0.965
530.8418418,0.965
531.7764242,0.965
532.7110066,0.965
533.645589,0.965
534.5801713999999,0.965
535.5147538,0.965
536.4493362,0.965
537.3839186,0.965
538.318501,0.965
539.2530833999999,0.966
540.1876658,0.966
541.1222482,0.966
542.0568306,0.965
542.991413,0.965
543.9259953999999,0.965
544.8605778,0.963
545.7951601999999,0.963
546.7297426,0.963
547.664325,0.962
548.5989072,0.962
549.5334894,0.962
550.4680715999999,0.962
551.4026537999999,0.962
552.337236,0.962
553.2718183999999,0.963
554.2064008,0.963
555.1409831999999,0.965
556.0755656,0.965
557.010148,0.966
557.9447303999999,0.966
558.8793128,0.968
559.8138951999999,0.969
560.7484776,0.969
561.68306,0.971
562.6176423999999,0.971
563.5522248,0.972
564.4868071999999,0.972
565.4213896,0.973
566.355972,0.973
567.2905543999999,0.973
568.2251368,0.973
569.1597191999999,0.975
570.0943016,0.975
571.028884,0.975
571.9634663999999,0.975
572.8980488,0.976
573.8326311999999,0.976
574.7672136,0.976
575.701796,0.978
576.6363782,0.978
577.5709604,0.978
578.5055425999999,0.978
579.4401247999999,0.976
580.374707,0.976
581.3092894,0.975
582.2438718,0.975
583.1784542,0.973
584.1130366,0.973
585.047619,0.973
585.9822014,0.973
586.9167838000001,0.972
587.8513662,0.971
588.7859486000001,0.969
589.720531,0.969
590.6551134,0.968
591.5896958000001,0.965
592.5242782,0.963
593.4588606000001,0.962
594.393443,0.96
595.3280254,0.959
596.2626078000001,0.958
597.1971902,0.956
598.1317726000001,0.947
599.066355,0.929
600.0009372000001,0.908
600.9355194000001,0.908
601.8701016,0.929
602.8046838,0.942
603.739266,0.94
604.6738484,0.939
605.6084308000001,0.936
606.5430132,0.934
607.4775956000001,0.934
608.412178,0.933
609.3467604,0.932
610.2813428000001,0.933
611.2159252,0.934
612.1505076000001,0.936
613.08509,0.936
614.0196724,0.936
614.9542548000001,0.939
615.8888372,0.942
616.8234196000001,0.945
617.758002,0.943
618.6925844,0.9288
619.6271668,0.4711
620.5617492,0.465
621.4963316000001,0.5749
622.430914,0.9443
623.3654964,0.947
624.3000788,0.947
625.2346612,0.9261
626.1692436000001,0.9141
627.103826,0.903
628.0384082,0.885
628.9729904000001,0.874
629.9075726,0.856
630.8421548,0.838
631.776737,0.8061
632.7113194,0.7781
633.6459018,0.7631
634.5804842,0.7441
635.5150666000001,0.7231
636.449649,0.702
637.3842314,0.68
638.3188138,0.657
639.2533962,0.634
640.1879786000001,0.612
641.122561,0.5891
642.0571434,0.5671
642.9917258,0.5401
643.9263082,0.534
644.8608906000001,0.5181
645.795473,0.508
646.7300554,0.4979
647.6646378,0.446
648.5992202,0.401
649.5338026000001,0.352
650.468385,0.3031
651.4029674,0.303
652.3375498,0.3608
653.2721322,0.355
654.2067146,0.349
655.141297,0.345
656.0758792,0.342
657.0104614,0.343
657.9450436,0.348
658.8796258,0.349
659.814208,0.356
660.7487904,0.362
661.6833728,0.368
662.6179552,0.375
663.5525376,0.378
664.48712,0.385
665.4217024,0.42
666.3562848,0.466
667.2908672,0.463
668.2254496,0.1993
669.160032,0.1341
670.0946144,0.0692
671.0291968,0.1797
671.9637792,0.2737
672.8983616,0.2939
673.832944,0.299
674.7675264,0.294
675.7021088,0.29
676.6366912,0.286
677.5712736,0.281
678.505856,0.28
679.4404382,0.28
680.3750204,0.281
681.3096026,0.29
682.2441848,0.299
683.178767,0.306
684.1133494,0.315
685.0479318,0.323
685.9825142,0.326
686.9170966,0.335
687.851679,0.343
688.7862614,0.354
689.7208438,0.367
690.6554262,0.3799
691.5900086,0.3949
692.524591,0.411
693.4591733999999,0.429
694.3937558,0.445
695.3283382,0.462
696.2629206,0.479
697.197503,0.495
698.1320853999999,0.51
699.0666678,0.5359
700.0012502,0.549
700.9358326,0.5819
701.870415,0.611
702.8049973999999,0.631
703.7395798,0.663
704.6741622,0.68
705.6087446,0.697
706.543327,0.713
707.4779092,0.7389
708.4124914,0.752
709.3470735999999,0.761
710.2816558,0.7829
711.216238,0.809
712.1508203999999,0.833
713.0854028,0.849
714.0199852,0.856
714.9545676,0.869
715.88915,0.877
716.8237323999999,0.89
717.7583148,0.9109
718.6928972,0.921
719.6274796,0.93
720.562062,0.8149
721.4966443999999,0.7099
722.4312268,0.579
723.3658092,0.3332
724.3003916,0.333
725.234974,0.9578
726.1695563999999,0.958
727.1041388,0.955
728.0387211999999,0.946
728.9733036,0.943
729.907886,0.939
730.8424682,0.936
731.7770504,0.933
732.7116325999999,0.932
733.6462147999999,0.93
734.580797,0.929
735.5153793999999,0.929
736.4499618,0.927
737.3845441999999,0.927
738.3191266,0.926
739.253709,0.926
740.1882913999999,0.926
741.1228738,0.924
742.0574561999999,0.923
742.9920386,0.921
743.926621,0.923
744.8612033999999,0.937
745.7957858,0.946
746.7303681999999,0.958
747.6649506,0.96
748.599533,0.963
749.5341153999999,0.965
750.4686978,0.968
751.4032801999999,0.969
752.3378626,0.973
753.272445,0.976
754.2070273999999,0.978
755.1416098,0.979
756.0761921999999,0.981
757.0107746,0.982
757.945357,0.982
758.8799392,0.984
759.8145214,0.984
760.7491035999999,0.985
761.6836857999999,0.986
762.618268,0.986
763.5528504,0.988
764.4874328,0.989
765.4220152,0.989
766.3565976,0.989
767.29118,0.989
768.2257624,0.989
769.1603448000001,0.989
770.0949272,0.989
771.0295096000001,0.989
771.964092,0.991
772.8986744,0.991
773.8332568000001,0.991
774.7678392,0.991
775.7024216000001,0.991
776.637004,0.991
777.5715864,0.991
778.5061688000001,0.991
779.4407512,0.991
780.3753336000001,0.992
781.309916,0.992
782.2444984,0.991
783.1790808000001,0.991
784.1136632,0.989
785.0482456000001,0.989
785.982828,0.989
786.9174102000001,0.989
787.8519924000001,0.989
788.7865746,0.989
789.7211568,0.989
790.655739,0.989
791.5903214,0.989
792.5249038000001,0.989
793.4594862,0.989
794.3940686000001,0.989
795.328651,0.989
796.2632334,0.989
797.1978158000001,0.989
798.1323982,0.989
799.0669806000001,0.988
800.001563,0.988
800.9361454,0.986
801.8707278,0.986
802.8053102,0.986
803.7398926000001,0.986
804.674475,0.988
805.6090574,0.988
806.5436398,0.988
807.4782222,0.988
808.4128046000001,0.988
809.347387,0.989
810.2819692,0.989
811.2165514000001,0.989
812.1511336,0.989
813.0857158,0.989
814.020298,0.989
814.9548804,0.991
815.8894628,0.991
816.8240452,0.991
817.7586276000001,0.991
818.69321,0.991
819.6277924,0.991
820.5623748,0.991
821.4969572,0.991
822.4315396000001,0.991
823.366122,0.991
824.3007044,0.991
825.2352868,0.991
826.1698692,0.991
827.1044516000001,0.992
828.039034,0.992
828.9736164,0.992
829.9081988,0.992
830.8427812,0.991
831.7773636000001,0.991
832.711946,0.991
833.6465284,0.992
834.5811108,0.992
835.5156932,0.992
836.4502756,0.992
837.384858,0.992
838.3194402,0.992
839.2540224,0.992
840.1886046,0.992
841.1231868,0.994
842.057769,0.994
842.9923514,0.994
843.9269338,0.994
844.8615162,0.994
845.7960986,0.994
846.730681,0.994
847.6652634,0.994
848.5998458,0.994
849.5344282,0.994
850.4690106,0.995
851.403593,0.995
852.3381754,0.994
853.2727578,0.994
854.2073402,0.994
855.1419226,0.994
856.076505,0.994
857.0110874,0.994
857.9456698,0.994
858.8802522,0.995
859.8148346,0.994
860.749417,0.994
861.6839992,0.994
862.6185814,0.994
863.5531636,0.994
864.4877458,0.994
865.422328,0.994
866.3569104,0.994
867.2914928,0.995
868.2260752,0.995
869.1606576,0.995
870.09524,0.995
871.0298224,0.995
871.9644048,0.995
872.8989872,0.995
873.8335696,0.995
874.768152,0.995
875.7027343999999,0.995
876.6373168,0.995
877.5718992,0.995
878.5064816,0.995
879.441064,0.995
880.3756463999999,0.995
881.3102288,0.995
882.2448112,0.995
883.1793936,0.995
884.113976,0.997
885.0485583999999,0.997
885.9831408,0.995
886.9177232,0.995
887.8523056,0.995
888.786888,0.995
889.7214702,0.995
890.6560524,0.994
891.5906345999999,0.994
892.5252168,0.994
893.459799,0.995
894.3943813999999,0.995
895.3289638,0.995
896.2635462,0.995
897.1981286,0.995
898.132711,0.997
899.0672933999999,0.995
900.0018758,0.995
900.9364582,0.995
901.8710406,0.995
902.805623,0.995
903.7402053999999,0.995
904.6747878,0.995
905.6093702,0.997
906.5439526,0.997
907.478535,0.997
908.4131173999999,0.998
909.3476998,0.998
910.2822821999999,0.998
911.2168646,1.0
912.151447,1.0
913.0860293999999,1.001
914.0206118,1.001
914.9551941999999,1.001
915.8897766,1.001
916.824359,1.001
917.7589412,1.001
918.6935234,1.001
919.6281055999999,1.001
920.5626877999999,1.002
921.49727,1.002
922.4318523999999,1.002
923.3664348,1.002
924.3010171999999,1.002
925.2355996,1.002
926.170182,1.002
927.1047643999999,1.002
928.0393468,1.004
928.9739291999999,1.004
929.9085116,1.004
930.843094,1.004
931.7776763999999,1.004
932.7122588,1.004
933.6468411999999,1.004
934.5814236,1.004
935.516006,1.004
936.4505883999999,1.004
937.3851708,1.005
938.3197531999999,1.005
939.2543356,1.005
940.188918,1.005
941.1235002,1.005
942.0580824,1.005
942.9926645999999,1.005
943.9272467999999,1.005
944.861829,1.005
945.7964114,1.005
946.7309938,1.005
947.6655762,1.005
948.6001586,1.005
949.534741,1.005
950.4693234,1.005
951.4039058000001,1.005
952.3384882,1.005
953.2730706000001,1.005
954.207653,1.005
955.1422354,1.005
956.0768178000001,1.005
957.0114002,1.005
957.9459826000001,1.005
958.880565,1.005
959.8151474,1.005
960.7497298000001,1.005
961.6843122,1.005
962.6188946000001,1.005
963.553477,1.005
964.4880594,1.005
965.4226418000001,1.005
966.3572242,1.007
967.2918066000001,1.007
968.226389,1.007
969.1609712000001,1.007
970.0955534000001,1.007
971.0301356,1.007
971.9647178,1.007
972.8993,1.007
973.8338824,1.007
974.7684648000001,1.007
975.7030472,1.007
976.6376296000001,1.008
977.572212,1.008
978.5067944,1.007
979.4413768000001,1.007
980.3759592,1.007
981.3105416000001,1.007
982.245124,1.007
983.1797064,1.007
984.1142888,1.007
985.0488712,1.007
985.9834536000001,1.007
986.918036,1.007
987.8526184,1.007
988.7872008,1.007
989.7217832,1.008
990.6563656000001,1.008
991.590948,1.008
992.5255304,1.008
993.4601128,1.01
994.3946952,1.01
995.3292776000001,1.01
996.26386,1.01
997.1984422,1.008
998.1330244000001,1.008
999.0676066,1.008
1000.0021888,1.008
1000.936771,1.008
1001.8713534,1.007
1002.8059358,1.007
1003.7405182,1.005
1004.6751006000001,1.005
1005.609683,1.004
1006.5442654,1.004
1007.4788478,1.004
1008.4134302,1.005
1009.3480126000001,1.007
1010.282595,1.008
1011.2171774,1.008
1012.1517598,1.01
1013.0863422,1.01
1014.0209246000001,1.01
1014.955507,1.01
1015.8900894,1.011
1016.8246718,1.011
1017.7592542,1.011
1018.6938366,1.013
1019.628419,1.013
1020.5630012,1.014
1021.4975834,1.014
1022.4321656,1.014
1023.3667478,1.014
1024.30133,1.014
1025.2359124,1.014
1026.1704948,1.014
1027.1050772,1.014
1028.0396596,1.014
1028.974242,1.014
1029.9088244,1.015
1030.8434068,1.015
1031.7779892,1.015
1032.7125716,1.015
1033.647154,1.015
1034.5817364,1.015
1035.5163188,1.015
1036.4509012,1.015
1037.3854836,1.015
1038.320066,1.015
1039.2546484,1.014
1040.1892308,1.014
1041.1238132,1.013
1042.0583956,1.013
1042.992978,1.011
1043.9275604,1.011
1044.8621428,1.011
1045.7967252,1.011
1046.7313076,1.014
1047.66589,1.015
1048.6004722,1.015
1049.5350544,1.014
1050.4696366,1.005
1051.4042188,1.002
1052.338801,1.004
1053.2733834,1.014
1054.2079658,1.015
1055.1425482000002,1.015
1056.0771306000001,1.013
1057.011713,1.013
1057.9462954,1.013
1058.8808778,1.014
1059.8154602000002,1.014
1060.7500426000001,1.014
1061.684625,1.013
1062.6192074,1.013
1063.5537898,1.013
1064.4883722000002,1.013
1065.4229546000001,1.011
1066.357537,1.011
1067.2921194,1.011
1068.2267018,1.01
1069.1612842000002,1.008
1070.0958666000001,1.005
1071.030449,1.005
1071.9650312,1.004
1072.8996134000001,1.004
1073.8341956,1.004
1074.7687778,1.004
1075.70336,1.004
1076.6379424,1.005
1077.5725247999999,1.005
1078.5071072,1.008
1079.4416896,1.008
1080.376272,1.01
1081.3108544,1.011
1082.2454367999999,1.011
1083.1800192,1.011
1084.1146016,1.013
1085.049184,1.013
1085.9837664,1.013
1086.9183487999999,1.014
1087.8529312,1.014
1088.7875136,1.014
1089.722096,1.014
1090.6566784,1.014
1091.5912607999999,1.014
1092.5258432,1.015
1093.4604256,1.015
1094.395008,1.015
1095.3295904,1.015
1096.2641727999999,1.015
1097.1987552,1.017
1098.1333376,1.017
1099.06792,1.017
1100.0025022,1.017
1100.9370844,1.017
1101.8716666,1.017
1102.8062488,1.017
1103.740831,1.017
1104.6754134,1.017
1105.6099958,1.017
1106.5445782000002,1.017
1107.4791606000001,1.017
1108.413743,1.017
1109.3483254,1.017
1110.2829078,1.017
1111.2174902000002,1.017
1112.1520726,1.017
1113.086655,1.018
1114.0212374,1.018
1114.9558198,1.018
1115.8904022000002,1.018
1116.8249846,1.018
1117.759567,1.018
1118.6941494,1.018
1119.6287318,1.018
1120.5633142000001,1.018
1121.4978966,1.018
1122.432479,1.018
1123.3670614,1.018
1124.3016438,1.018
1125.2362262000001,1.018
1126.1708086,1.018
1127.105391,1.017
1128.0399732,1.017
1128.9745554,1.017
1129.9091376,1.017
1130.8437198,1.015
1131.778302,1.014
1132.7128844,1.014
1133.6474667999998,1.014
1134.5820492,1.013
1135.5166316,1.013
1136.451214,1.013
1137.3857964,1.013
1138.3203787999998,1.011
1139.2549612,1.011
1140.1895436,1.011
1141.124126,1.011
1142.0587084,1.011
1142.9932907999998,1.013
1143.9278732,1.013
1144.8624556,1.014
1145.797038,1.014
1146.7316203999999,1.015
1147.6662027999998,1.015
1148.6007852,1.015
1149.5353676,1.015
1150.46995,1.017
1151.4045322,1.017
1152.3391144,1.018
1153.2736966,1.018
1154.2082788,1.018
1155.142861,1.018
1156.0774434,1.018
1157.0120258,1.018
1157.9466082000001,1.018
1158.8811906,1.018
1159.815773,1.018
1160.7503554,1.018
1161.6849378,1.018
1162.6195202000001,1.018
1163.5541026,1.018
1164.488685,1.018
1165.4232674,1.018
1166.3578498,1.018
1167.2924322000001,1.018
1168.2270146,1.018
1169.161597,1.018
1170.0961794,1.018
1171.0307618,1.018
1171.9653442000001,1.018
1172.8999266,1.018
1173.834509,1.017
1174.7690914,1.015
1175.7036738,1.014
1176.6382562000001,1.014
1177.5728386,1.013
1178.507421,1.011
1179.4420032,1.01
1180.3765854,1.01
1181.3111675999999,1.011
1182.2457497999999,1.014
1183.180332,1.017
1184.1149143999999,1.017
1185.0494967999998,1.018
1185.9840792,1.018
1186.9186616,1.02
1187.853244,1.02
1188.7878263999999,1.02
1189.7224087999998,1.021
1190.6569912,1.021
1191.5915736,1.023
1192.526156,1.023
1193.4607383999999,1.023
1194.3953207999998,1.023
1195.3299032,1.023
1196.2644856,1.023
1197.199068,1.023
1198.1336503999999,1.023
1199.0682327999998,1.023
1200.0028152,1.023
1200.9373976,1.023
1201.87198,1.023
1202.8065622,1.023
1203.7411444,1.023
1204.6757266,1.023
1205.6103088,1.023
1206.544891,1.023
1207.4794734,1.023
1208.4140558,1.023
1209.3486382,1.023
1210.2832206,1.023
1211.217803,1.023
1212.1523854,1.023
1213.0869678,1.023
1214.0215502,1.023
1214.9561326,1.023
1215.890715,1.023
1216.8252974,1.023
1217.7598798,1.023
1218.6944622,1.023
1219.6290446,1.023
1220.563627,1.021
1221.4982094,1.021
1222.4327918,1.021
1223.3673742,1.021
1224.3019566,1.02
1225.236539,1.02
1226.1711214,1.02
1227.1057038,1.02
1228.0402862,1.02
1228.9748686,1.02
1229.909451,1.02
1230.8440332,1.021
1231.7786154,1.02
1232.7131976,1.02
1233.6477798,1.018
1234.582362,1.018
1235.5169444,1.017
1236.4515268,1.015
1237.3861092000002,1.015
1238.3206916000001,1.014
1239.255274,1.013
1240.1898564,1.01
1241.1244388,1.01
1242.0590212000002,1.008
1242.9936036000001,1.008
1243.928186,1.008
1244.8627684,1.007
1245.7973508,1.007
1246.7319332000002,1.005
1247.6665156000001,1.005
1248.601098,1.005
1249.5356804,1.004
1250.4702628,1.004
1251.4048452000002,1.002
1252.3394276000001,1.002
1253.27401,1.001
1254.2085924,1.001
1255.1431748,1.001
1256.0777572000002,1.001
1257.0123396000001,1.001
1257.946922,1.001
1258.8815042,1.001
1259.8160864000001,1.001
1260.7506686,1.001
1261.6852508,1.0
1262.619833,1.0
1263.5544154,1.0
1264.4889977999999,1.0
1265.4235802,1.0
1266.3581626,1.0
1267.292745,1.0
1268.2273274,1.0
1269.1619097999999,1.0
1270.0964922,1.0
1271.0310746,1.0
1271.965657,0.998
1272.9002394,0.998
1273.8348217999999,0.998
1274.7694042,0.998
1275.7039866,0.998
1276.638569,0.998
1277.5731514,0.998
1278.5077337999999,0.998
1279.4423162,0.998
1280.3768986,0.997
1281.311481,0.997
1282.2460632,0.997
1283.1806454,0.997
1284.1152276,0.997
1285.0498098,0.997
1285.984392,0.997
1286.9189744,0.997
1287.8535568,0.997
1288.7881392000002,0.995
1289.7227216,0.995
1290.657304,0.994
1291.5918864,0.994
1292.5264688,0.994
1293.4610512000002,0.994
1294.3956336,0.994
1295.330216,0.994
1296.2647984,0.994
1297.1993808,0.994
1298.1339632000002,0.994
1299.0685456,0.994
1300.003128,0.994
1300.9377104,0.994
1301.8722928,0.994
1302.8068752000001,0.994
1303.7414576,0.994
1304.67604,0.995
1305.6106224,0.995
1306.5452048,0.995
1307.4797872000001,0.995
1308.4143696,0.995
1309.348952,0.995
1310.2835342,0.995
1311.2181164,0.995
1312.1526986,0.995
1313.0872808,0.995
1314.021863,0.994
1314.9564454,0.994
1315.8910277999998,0.994
1316.8256102,0.992
1317.7601926,0.994
1318.694775,0.994
1319.6293574,0.994
1320.5639397999998,0.994
1321.4985222,0.994
1322.4331046,0.994
1323.367687,0.994
1324.3022694,0.995
1325.2368517999998,0.995
1326.1714342,0.995
1327.1060166,0.995
1328.040599,0.995
1328.9751813999999,0.995
1329.9097637999998,0.995
1330.8443462,0.995
1331.7789286,0.995
1332.713511,0.995
1333.6480932,0.995
1334.5826754,0.995
1335.5172576,0.995
1336.4518398,0.995
1337.386422,0.995
1338.3210044,0.995
1339.2555868,0.995
1340.1901692000001,0.995
1341.1247516,0.995
1342.059334,0.995
1342.9939164,0.995
1343.9284988,0.995
1344.8630812000001,0.995
1345.7976636,0.997
1346.732246,0.997
1347.6668284,0.995
1348.6014108,0.995
1349.5359932000001,0.994
1350.4705756,0.994
1351.405158,0.992
1352.3397404,0.991
1353.2743228,0.989
1354.2089052000001,0.988
1355.1434876,0.986
1356.07807,0.986
1357.0126524,0.985
1357.9472348,0.985
1358.8818172000001,0.984
1359.8163996,0.984
1360.750982,0.984
1361.6855642,0.984
1362.6201464,0.985
1363.5547285999999,0.985
1364.4893107999999,0.985
1365.423893,0.985
1366.3584753999999,0.986
1367.2930577999998,0.986
1368.2276402,0.985
1369.1622226,0.984
1370.096805,0.982
1371.0313873999999,0.982
1371.9659697999998,0.982
1372.9005522,0.981
1373.8351346,0.981
1374.769717,0.979
1375.7042993999999,0.979
1376.6388817999998,0.979
1377.5734642,0.979
1378.5080466,0.978
1379.442629,0.973
1380.3772113999999,0.966
1381.3117937999998,0.963
1382.2463762,0.962
1383.1809586,0.96
1384.115541,0.962
1385.0501233999998,0.962
1385.9847057999998,0.963
1386.9192882,0.966
1387.8538706,0.969
1388.788453,0.973
1389.7230352,0.979
1390.6576174,0.985
1391.5921996,0.989
1392.5267818,0.989
1393.461364,0.991
1394.3959464,0.991
1395.3305288,0.992
1396.2651112,0.992
1397.1996936,0.994
1398.134276,0.995
1399.0688584,0.995
1400.0034408,0.995
1400.9380232,0.995
1401.8726056,0.995
1402.807188,0.995
1403.7417704,0.995
1404.6763528,0.995
1405.6109352,0.994
1406.5455176,0.995
1407.4801,0.995
1408.4146824,0.995
1409.3492648,0.995
1410.2838472,0.995
1411.2184296,0.995
1412.153012,0.995
1413.0875942,0.997
1414.0221764,0.997
1414.9567586,0.997
1415.8913408,0.998
1416.825923,0.998
1417.7605054,0.997
1418.6950878,0.997
1419.6296702000002,0.995
1420.5642526000001,0.995
1421.498835,0.995
1422.4334174,0.995
1423.3679998,0.995
1424.3025822000002,0.995
1425.2371646000001,0.995
1426.171747,0.995
1427.1063294,0.995
1428.0409118,0.995
1428.9754942000002,0.995
1429.9100766000001,0.997
1430.844659,0.997
1431.7792414,0.994
1432.7138238,0.994
1433.6484062000002,0.992
1434.5829886000001,0.992
1435.517571,0.992
1436.4521534,0.991
1437.3867358,0.991
1438.3213182000002,0.992
1439.2559006000001,0.992
1440.190483,0.992
1441.1250652,0.992
1442.0596474000001,0.992
1442.9942296,0.992
1443.9288118,0.992
1444.863394,0.992
1445.7979764,0.992
1446.7325587999999,0.992
1447.6671412,0.992
1448.6017236,0.992
1449.536306,0.992
1450.4708884,0.991
1451.4054707999999,0.991
1452.3400532,0.991
1453.2746356,0.989
1454.209218,0.989
1455.1438004,0.988
1456.0783827999999,0.988
1457.0129652,0.988
1457.9475476,0.986
1458.88213,0.986
1459.8167124,0.986
1460.7512947999999,0.988
1461.6858772,0.988
1462.6204596,0.989
1463.555042,0.989
1464.4896244,0.989
1465.4242067999999,0.989
1466.3587892,0.989
1467.2933716,0.991
1468.227954,0.991
1469.1625362,0.991
1470.0971184,0.991
1471.0317006,0.991
1471.9662828,0.991
1472.900865,0.991
1473.8354474,0.991
1474.7700298,0.991
1475.7046122000002,0.991
1476.6391946,0.992
1477.573777,0.991
1478.5083594,0.989
1479.4429418,0.989
1480.3775242000002,0.988
1481.3121066,0.986
1482.246689,0.986
1483.1812714,0.986
1484.1158538,0.986
1485.0504362000001,0.986
1485.9850186,0.986
1486.919601,0.986
1487.8541834,0.986
1488.7887658,0.988
1489.7233482000001,0.988
1490.6579306,0.989
1491.592513,0.988
1492.5270952,0.988
1493.4616774,0.988
1494.3962596,0.988
1495.3308418,0.988
1496.265424,0.988
1497.2000064,0.989
1498.1345887999998,0.989
1499.0691712,0.989
1500.0037536,0.988
1500.938336,0.988
1501.8729184,0.988
1502.8075007999998,0.988
1503.7420832,0.988
1504.6766656,0.988
1505.611248,0.988
1506.5458303999999,0.988
1507.4804127999998,0.989
1508.4149952,0.989
1509.3495776,0.989
1510.28416,0.991
1511.2187423999999,0.989
1512.1533247999998,0.989
1513.0879072,0.989
1514.0224896,0.988
1514.957072,0.988
1515.8916543999999,0.988
1516.8262367999998,0.988
1517.7608192,0.988
1518.6954016,0.988
1519.629984,0.986
1520.5645662,0.986
1521.4991484,0.985
1522.4337306,0.986
1523.3683128,0.986
1524.302895,0.986
1525.2374774,0.986
1526.1720598,0.986
1527.1066422000001,0.988
1528.0412246,0.988
1528.975807,0.988
1529.9103894,0.988
1530.8449718,0.989
1531.7795542000001,0.989
1532.7141366,0.989
1533.648719,0.989
1534.5833014,0.989
1535.5178838,0.988
1536.4524662000001,0.988
1537.3870486,0.988
1538.321631,0.988
1539.2562134,0.986
1540.1907958,0.986
1541.1253782000001,0.986
1542.0599606,0.988
1542.994543,0.986
1543.9291252,0.986
1544.8637074,0.986
1545.7982895999999,0.986
1546.7328717999999,0.988
1547.667454,0.988
1548.6020363999999,0.988
1549.5366187999998,0.988
1550.4712012,0.989
1551.4057836,0.991
1552.340366,0.991
1553.2749483999999,0.991
1554.2095307999998,0.991
1555.1441132,0.989
1556.0786956,0.988
1557.013278,0.988
1557.9478603999999,0.988
1558.8824427999998,0.988
1559.8170252,0.988
1560.7516076,0.988
1561.68619,0.988
1562.6207723999999,0.989
1563.5553547999998,0.988
1564.4899372,0.988
1565.4245196,0.988
1566.359102,0.989
1567.2936843999998,0.989
1568.2282667999998,0.989
1569.1628492,0.989
1570.0974316,0.989
1571.032014,0.988
1571.9665962,0.988
1572.9011784,0.988
1573.8357606,0.986
1574.7703428,0.986
1575.704925,0.988
1576.6395074,0.986
1577.5740898,0.986
1578.5086722,0.986
1579.4432546,0.986
1580.377837,0.986
1581.3124194,0.986
1582.2470018,0.986
1583.1815842,0.988
1584.1161666,0.988
1585.050749,0.988
1585.9853314,0.989
1586.9199138,0.989
1587.8544962,0.991
1588.7890786,0.989
1589.723661,0.989
1590.6582434,0.989
1591.5928258,0.989
1592.5274082,0.991
1593.4619906,0.989
1594.396573,0.989
1595.3311554,0.989
1596.2657378,0.989
1597.2003202,0.989
1598.1349026,0.989
1599.069485,0.989
1600.0040672,0.989
1600.9386494,0.989
1601.8732316,0.989
1602.8078138,0.988
1603.742396,0.988
1604.6769784,0.989
1605.6115608,0.989
1606.5461432000002,0.989
1607.4807256000001,0.989
1608.415308,0.989
1609.3498904,0.989
1610.2844728,0.989
1611.2190552000002,0.989
1612.1536376000001,0.988
1613.08822,0.988
1614.0228024,0.988
1614.9573848,0.989
1615.8919672000002,0.989
1616.8265496000001,0.989
1617.761132,0.989
1618.6957144,0.989
1619.6302968,0.989
1620.5648792000002,0.988
1621.4994616000001,0.986
1622.434044,0.986
1623.3686262,0.988
1624.3032084000001,0.988
1625.2377906,0.989
1626.1723728,0.991
1627.106955,0.991
1628.0415374,0.991
1628.9761197999999,0.991
1629.9107022,0.992
1630.8452846,0.991
1631.779867,0.991
1632.7144494,0.991
1633.6490317999999,0.991
1634.5836142,0.992
1635.5181966,0.992
1636.452779,0.994
1637.3873614,0.994
1638.3219437999999,0.994
1639.2565262,0.994
1640.1911086,0.995
1641.125691,0.997
1642.0602734,0.997
1642.9948557999999,0.997
1643.9294382,0.998
1644.8640206,0.998
1645.798603,0.998
1646.7331854,0.997
1647.6677677999999,0.997
1648.6023502,0.995
1649.5369326,0.995
1650.471515,0.995
1651.4060972,0.994
1652.3406794,0.992
1653.2752616,0.992
1654.2098438,0.992
1655.144426,0.992
1656.0790084,0.991
1657.0135908,0.989
1657.9481732000002,0.989
1658.8827556,0.989
1659.817338,0.989
1660.7519204,0.989
1661.6865028,0.989
1662.6210852000002,0.989
1663.5556676,0.989
1664.49025,0.989
1665.4248324,0.989
1666.3594148,0.989
1667.2939972000001,0.989
1668.2285796,0.988
1669.163162,0.988
1670.0977444,0.988
1671.0323268,0.988
1671.9669092000001,0.988
1672.9014916,0.988
1673.836074,0.988
1674.7706562,0.988
1675.7052384,0.989
1676.6398206,0.989
1677.5744028,0.988
1678.508985,0.988
1679.4435674,0.986
1680.3781497999998,0.986
1681.3127322,0.991
1682.2473146,0.992
1683.181897,0.992
1684.1164794,0.992
1685.0510617999998,0.992
1685.9856442,0.991
1686.9202266,0.991
1687.854809,0.989
1688.7893913999999,0.989
1689.7239737999998,0.988
1690.6585562,0.986
1691.5931386,0.986
1692.527721,0.986
1693.4623033999999,0.986
1694.3968857999998,0.986
1695.3314682,0.986
1696.2660506,0.986
1697.200633,0.985
1698.1352153999999,0.985
1699.0697977999998,0.985
1700.0043802,0.985
1700.9389626,0.985
1701.873545,0.985
1702.8081272,0.985
1703.7427094,0.985
1704.6772916,0.985
1705.6118738,0.985
1706.546456,0.985
1707.4810384,0.985
1708.4156208,0.985
1709.3502032000001,0.986
1710.2847856,0.986
1711.219368,0.988
1712.1539504,0.988
1713.0885328,0.986
1714.0231152000001,0.986
1714.9576976,0.986
1715.89228,0.986
1716.8268624,0.986
1717.7614448,0.985
1718.6960272000001,0.985
1719.6306096,0.985
1720.565192,0.985
1721.4997744,0.985
1722.4343568,0.984
1723.3689392,0.984
1724.3035216,0.984
1725.238104,0.984
1726.1726864,0.984
1727.1072688,0.984
1728.0418512,0.984
1728.9764336,0.984
1729.911016,0.984
1730.8455982,0.984
1731.7801804,0.984
1732.7147625999999,0.985
1733.6493447999999,0.985
1734.583927,0.986
1735.5185093999999,0.986
1736.4530917999998,0.986
1737.3876742,0.986
1738.3222566,0.986
1739.256839,0.986
1740.1914213999999,0.986
1741.1260037999998,0.985
1742.0605862,0.985
1742.9951686,0.985
1743.929751,0.984
1744.8643333999999,0.985
1745.7989157999998,0.985
1746.7334982,0.985
1747.6680806,0.985
1748.602663,0.985
1749.5372453999998,0.985
1750.4718277999998,0.985
1751.4064102,0.985
1752.3409926,0.985
1753.275575,0.985
1754.2101572,0.985
1755.1447394,0.985
1756.0793216,0.985
1757.0139038,0.985
1757.948486,0.985
1758.8830684,0.985
1759.8176508,0.985
1760.7522332,0.985
1761.6868156,0.985
1762.621398,0.985
1763.5559804,0.985
1764.4905628,0.985
1765.4251452,0.985
1766.3597276,0.986
1767.29431,0.986
1768.2288924,0.986
1769.1634748,0.986
1770.0980572,0.986
1771.0326396,0.986
1771.967222,0.986
1772.9018044,0.986
1773.8363868,0.986
1774.7709692,0.986
1775.7055516,0.986
1776.640134,0.986
1777.5747164,0.986
1778.5092988,0.986
1779.4438812,0.986
1780.3784636,0.986
1781.313046,0.985
1782.2476282,0.986
1783.1822104,0.986
1784.1167926,0.986
1785.0513748,0.986
1785.985957,0.986
1786.9205394,0.986
1787.8551218,0.986
1788.7897042000002,0.986
1789.7242866000001,0.986
1790.658869,0.986
1791.5934514,0.986
1792.5280338,0.986
1793.4626162000002,0.986
1794.3971986000001,0.986
1795.331781,0.986
1796.2663634,0.986
1797.2009458,0.986
1798.1355282000002,0.986
1799.0701106000001,0.986
1800.004693,0.986
1800.9392754,0.986
1801.8738578,0.986
1802.8084402000002,0.986
1803.7430226000001,0.986
1804.677605,0.986
1805.6121872,0.988
1806.5467694000001,0.988
1807.4813516,0.988
1808.4159338,0.988
1809.350516,0.988
1810.2850984,0.988
1811.2196807999999,0.988
1812.1542632,0.988
1813.0888456,0.988
1814.023428,0.988
1814.9580104,0.988
1815.8925927999999,0.988
1816.8271752,0.988
1817.7617576,0.988
1818.69634,0.988
1819.6309224,0.988
1820.5655047999999,0.988
1821.5000872,0.988
1822.4346696,0.988
1823.369252,0.988
1824.3038344,0.988
1825.2384167999999,0.988
1826.1729992,0.988
1827.1075816,0.988
1828.042164,0.988
1828.9767464,0.988
1829.9113287999999,0.988
1830.8459112,0.988
1831.7804936,0.988
1832.715076,0.988
1833.6496582,0.988
1834.5842404,0.988
1835.5188226,0.988
1836.4534048,0.988
1837.387987,0.988
1838.3225694,0.988
1839.2571518,0.988
1840.1917342000002,0.988
1841.1263166,0.988
1842.060899,0.988
1842.9954814,0.988
1843.9300638,0.988
1844.8646462000002,0.988
1845.7992286,0.988
1846.733811,0.988
1847.6683934,0.988
1848.6029758,0.988
1849.5375582000001,0.988
1850.4721406,0.988
1851.406723,0.988
1852.3413054,0.988
1853.2758878,0.988
1854.2104702000001,0.988
1855.1450526,0.988
1856.079635,0.988
1857.0142174,0.988
1857.9487998,0.988
1858.8833822000001,0.988
1859.8179646,0.988
1860.752547,0.988
1861.6871292,0.988
1862.6217114,0.988
1863.5562936,0.988
1864.4908758,0.988
1865.425458,0.986
1866.3600404,0.986
1867.2946227999998,0.986
1868.2292052,0.986
1869.1637876,0.986
1870.09837,0.986
1871.0329523999999,0.986
1871.9675347999998,0.986
1872.9021172,0.986
1873.8366996,0.986
1874.771282,0.986
1875.7058643999999,0.986
1876.6404467999998,0.986
1877.5750292,0.986
1878.5096116,0.986
1879.444194,0.986
1880.3787763999999,0.986
1881.3133587999998,0.986
1882.2479412,0.986
1883.1825236,0.986
1884.117106,0.986
1885.0516882,0.986
1885.9862704,0.986
1886.9208526,0.986
1887.8554348,0.986
1888.790017,0.986
1889.7245994,0.986
1890.6591818,0.986
1891.5937642000001,0.986
1892.5283466,0.986
1893.462929,0.986
1894.3975114,0.986
1895.3320938,0.986
1896.2666762000001,0.986
1897.2012586,0.986
1898.135841,0.986
1899.0704234,0.986
1900.0050058,0.986
1900.9395882000001,0.986
1901.8741706,0.986
1902.808753,0.986
1903.7433354,0.986
1904.6779178,0.988
1905.6125002,0.988
1906.5470826,0.988
1907.481665,0.986
1908.4162474,0.986
1909.3508298,0.986
1910.2854122,0.986
1911.2199946,0.986
1912.154577,0.986
1913.0891592,0.986
1914.0237414,0.986
1914.9583235999999,0.986
1915.8929057999999,0.986
1916.827488,0.986
1917.7620703999999,0.986
1918.6966527999998,0.986
1919.6312352,0.988
1920.5658176,0.988
1921.5004,0.988
1922.4349823999999,0.988
1923.3695647999998,0.988
1924.3041472,0.988
1925.2387296,0.988
1926.173312,0.988
1927.1078943999999,0.988
1928.0424767999998,0.988
1928.9770592,0.988
1929.9116416,0.988
1930.846224,0.988
1931.7808063999998,0.988
1932.7153887999998,0.988
1933.6499712,0.988
1934.5845536,0.988
1935.519136,0.988
1936.4537182,0.988
1937.3883004,0.986
1938.3228826,0.986
1939.2574648,0.986
1940.192047,0.986
1941.1266294,0.986
1942.0612118,0.985
1942.9957942,0.984
1943.9303766,0.984
1944.864959,0.984
1945.7995414,0.984
1946.7341238,0.984
1947.6687062,0.984
1948.6032886,0.985
1949.537871,0.985
1950.4724534,0.985
1951.4070358,0.985
1952.3416182,0.985
1953.2762006,0.984
1954.210783,0.982
1955.1453654,0.979
1956.0799478,0.978
1957.0145302,0.978
1957.9491126,0.979
1958.883695,0.984
1959.8182774,0.986
1960.7528598,0.988
1961.6874422,0.988
1962.6220246,0.986
1963.556607,0.988
1964.4911892,0.988
1965.4257714,0.989
1966.3603536,0.989
1967.2949358,0.989
1968.229518,0.989
1969.1641004,0.989
1970.0986828,0.988
1971.0332652000002,0.989
1971.9678476000001,0.989
1972.90243,0.989
1973.8370124,0.989
1974.7715948,0.989
1975.7061772000002,0.991
1976.6407596000001,0.991
1977.575342,0.989
1978.5099244,0.989
1979.4445068,0.989
1980.3790892000002,0.989
1981.3136716000001,0.989
1982.248254,0.989
1983.1828364,0.989
1984.1174188,0.989
1985.0520012000002,0.989
1985.9865836000001,0.989
1986.921166,0.989
1987.8557484,0.989
1988.7903308,0.989
1989.7249132000002,0.989
1990.6594956000001,0.989
1991.594078,0.989
1992.5286602,0.989
1993.4632424000001,0.989
1994.3978246,0.989
1995.3324068,0.989
1996.266989,0.989
1997.2015714,0.989
1998.1361537999999,0.989
1999.0707362,0.989
2000.0053186,0.989
2000.939901,0.989
2001.8744834,0.989
2002.8090657999999,0.989
2003.7436482,0.989
2004.6782306,0.989
2005.612813,0.989
2006.5473954,0.989
2007.4819777999999,0.989
2008.4165602,0.989
2009.3511426,0.989
2010.285725,0.989
2011.2203074,0.989
2012.1548897999999,0.989
2013.0894722,0.989
2014.0240546,0.989
2014.958637,0.989
2015.8932192,0.989
2016.8278014,0.989
2017.7623836,0.989
2018.6969658,0.989
2019.631548,0.989
2020.5661304,0.989
2021.5007128,0.989
2022.4352952000002,0.989
2023.3698776,0.989
2024.30446,0.989
2025.2390424,0.989
2026.1736248,0.989
2027.1082072000002,0.989
2028.0427896,0.989
2028.977372,0.989
2029.9119544,0.989
2030.8465368,0.989
2031.7811192000001,0.989
2032.7157016,0.9886
2033.650284,0.9881
2034.5848664,0.988
2035.5194488,0.988
2036.4540312000001,0.988
2037.3886136,0.988
2038.323196,0.988
2039.2577784,0.988
2040.1923608,0.988
2041.1269432000001,0.988
2042.0615256,0.9873
2042.996108,0.9863
2043.9306902,0.986
2044.8652724,0.986
2045.7998546,0.986
2046.7344368,0.986
2047.669019,0.986
2048.6036014,0.986
2049.5381838,0.986
2050.4727662,0.986
2051.4073485999998,0.986
2052.341931,0.986
2053.2765134,0.9857
2054.2110958,0.9852
2055.1456782,0.985
2056.0802605999997,0.985
2057.014843,0.985
2057.9494254,0.985
2058.8840078,0.985
2059.8185902,0.985
2060.7531725999997,0.9853
2061.687755,0.9858
2062.6223374,0.986
2063.5569198,0.986
2064.4915022,0.986
2065.4260845999997,0.986
2066.360667,0.986
2067.2952494,0.986
2068.2298318,0.9868
2069.1644142,0.9883
2070.0989965999997,0.989
2071.033579,0.989
2071.9681612,0.9887
2072.9027434,0.9882
2073.8373256,0.988
2074.7719078,0.988
2075.70649,0.9875
2076.6410724,0.9865
2077.5756548,0.986
2078.5102372,0.986
2079.4448196,0.9851
2080.379402,0.9831
2081.3139844,0.9818
2082.2485668,0.9813
2083.1831492,0.9817
2084.1177316,0.9832
2085.052314,0.9844
2085.9868964,0.9854
2086.9214788,0.9864
2087.8560612,0.9874
2088.7906436,0.988
2089.725226,0.988
2090.6598084,0.988
2091.5943908,0.988
2092.5289732,0.988
2093.4635556,0.988
2094.398138,0.9882
2095.3327202,0.9887
2096.2673024,0.989
2097.2018846,0.989
2098.1364668,0.9893
2099.071049,0.9903
2100.0056314000003,0.991
2100.9402138,0.991
2101.8747962,0.991
2102.8093786,0.991
2103.743961,0.991
2104.6785434000003,0.991
2105.6131258,0.991
2106.5477082,0.991
2107.4822906,0.991
2108.416873,0.991
2109.3514554000003,0.9907
2110.2860378,0.9897
2111.2206202,0.989
2112.1552026,0.989
2113.089785,0.989
2114.0243674000003,0.989
2114.9589498,0.989
2115.8935322,0.989
2116.8281146,0.9892
2117.762697,0.9902
2118.6972794000003,0.991
2119.6318618,0.991
2120.5664442,0.9908
2121.5010266,0.9898
2122.435609,0.989
2123.3701912,0.989
2124.3047734,0.989
2125.2393556,0.989
2126.1739378,0.989
2127.10852,0.989
2128.0431024000004,0.989
2128.9776848,0.989
2129.9122672000003,0.989
2130.8468496,0.989
2131.781432,0.989
2132.7160144000004,0.989
2133.6505968,0.989
2134.5851792000003,0.989
2135.5197616,0.989
2136.454344,0.989
2137.3889264000004,0.989
2138.3235088,0.989
2139.2580912000003,0.9891
2140.1926736,0.9901
2141.127256,0.991
2142.0618384000004,0.991
2142.9964208,0.991
2143.9310032000003,0.991
2144.8655856,0.991
2145.800168,0.991
2146.7347502000002,0.991
2147.6693324000003,0.991
2148.6039146,0.991
2149.5384968,0.991
2150.473079,0.991
2151.4076614,0.991
2152.3422438,0.991
2153.2768262,0.991
2154.2114085999997,0.991
2155.145991,0.991
2156.0805734,0.991
2157.0151558,0.991
2157.9497382,0.991
2158.8843205999997,0.991
2159.818903,0.991
2160.7534854,0.991
2161.6880677999998,0.991
2162.6226502,0.991
2163.5572325999997,0.991
2164.491815,0.9914
2165.4263974,0.9919
2166.3609797999998,0.992
2167.2955622,0.992
2168.2301445999997,0.992
2169.164727,0.992
2170.0993094,0.992
2171.0338917999998,0.992
2171.9684742,0.992
2172.9030565999997,0.992
2173.837639,0.992
2174.7722212,0.992
2175.7068034,0.992
2176.6413856,0.992
2177.5759678,0.9928
2178.51055,0.9938
2179.4451324,0.994
2180.3797148,0.994
2181.3142972,0.994
2182.2488796,0.994
2183.183462,0.994
2184.1180444,0.994
2185.0526268,0.994
2185.9872092,0.994
2186.9217916,0.994
2187.856374,0.994
2188.7909564,0.994
2189.7255388,0.994
2190.6601212,0.994
2191.5947036,0.994
2192.529286,0.994
2193.4638684,0.994
2194.3984508,0.994
2195.3330332,0.994
2196.2676155999998,0.994
2197.202198,0.994
2198.1367804,0.9933
2199.0713628,0.9923
2200.0059452,0.992
2200.9405275999998,0.992
2201.87511,0.992
2202.8096922,0.992
2203.7442744,0.9917
2204.6788566,0.9912
2205.6134388,0.991
2206.548021,0.991
2207.4826034000002,0.991
2208.4171858,0.991
2209.3517682,0.991
2210.2863506,0.991
2211.220933,0.9904
2212.1555154000002,0.9894
2213.0900978,0.989
2214.0246802,0.989
2214.9592626,0.989
2215.893845,0.989
2216.8284274000002,0.989
2217.7630098,0.989
2218.6975922,0.9887
2219.6321746,0.9882
2220.566757,0.9875
2221.5013394000002,0.9865
2222.4359218,0.986
2223.3705042,0.986
2224.3050866,0.9858
2225.239669,0.9853
2226.1742512,0.9848
2227.1088334,0.9843
2228.0434156,0.9833
2228.9779978,0.9818
2229.91258,0.9805
2230.8471624000003,0.9795
2231.7817448,0.9788
2232.7163272000003,0.9783
2233.6509096,0.9773
2234.585492,0.9759
2235.5200744000003,0.9746
2236.4546568,0.9736
2237.3892392000002,0.9716
2238.3238216,0.9681
2239.258404,0.9634
2240.1929864000003,0.957
2241.1275688,0.9522
2242.0621512000002,0.9503
2242.9967336,0.9479
2243.931316,0.9449
2244.8658984000003,0.9406
2245.8004808,0.9341
2246.7350632000002,0.926
2247.6696456,0.9151
2248.604228,0.8982
2249.5388104000003,0.8699
2250.4733928,0.8472
2251.4079752000002,0.8358
2252.3425576,0.828
2253.27714,0.828
2254.2117222,0.8346
2255.1463044,0.8565
2256.0808865999998,0.8716
2257.0154688,0.8701
2257.950051,0.8516
2258.8846334,0.7881
2259.8192157999997,0.7378
2260.7537982,0.7254
2261.6883805999996,0.7185
2262.622963,0.7285
2263.5575454,0.7396
2264.4921277999997,0.754
2265.4267102,0.7644
2266.3612925999996,0.7619
2267.295875,0.7539
2268.2304574,0.7266
2269.1650397999997,0.704
2270.0996222,0.699
2271.0342045999996,0.6942
2271.968787,0.6903
2272.9033694,0.6864
2273.8379517999997,0.6829
2274.7725342,0.6795
2275.7071165999996,0.6765
2276.641699,0.6735
2277.5762812,0.67
2278.5108634,0.6666
2279.4454456,0.6636
2280.3800278,0.661
2281.31461,0.661
2282.2491924,0.6626
2283.1837748,0.6755
2284.1183572,0.6885
2285.0529395999997,0.7024
2285.987522,0.7163
2286.9221044,0.7297
2287.8566868,0.7388
2288.7912692,0.7001
2289.7258515999997,0.6586
2290.660434,0.5772
2291.5950164,0.498
2292.5295988,0.4598
2293.4641812,0.4244
2294.3987635999997,0.4616
2295.333346,0.4989
2296.2679284,0.5361
2297.2025108,0.5722
2298.1370932,0.4724
2299.0716755999997,0.3726
2300.006258,0.2563
2300.9408404,0.14
2301.8754228,0.1385
2302.8100052,0.137
2303.7445875999997,0.185
2304.67917,0.2336
2305.6137522,0.235
2306.5483344,0.235
2307.4829166,0.1813
2308.4174988,0.1252
2309.352081,0.1084
2310.2866634,0.094
2311.2212458,0.0792
2312.1558282,0.0643
2313.0904106,0.053
2314.024993,0.0421
2314.9595754,0.0365
2315.8941578,0.0316
2316.8287402,0.0266
2317.7633226,0.0216
2318.697905,0.0206
2319.6324874,0.0201
2320.5670698,0.02
2321.5016522,0.02
2322.4362346,0.0191
2323.370817,0.0182
2324.3053994,0.018
2325.2399818,0.018
2326.1745642,0.018
2327.1091466,0.018
2328.043729,0.018
2328.9783114,0.018
2329.9128938,0.0188
2330.8474762,0.0198
2331.7820586,0.02
2332.716641,0.02
2333.6512232,0.02
2334.5858054,0.02
2335.5203876,0.02
2336.4549698,0.02
2337.389552,0.0204
2338.3241344000003,0.0209
2339.2587168,0.021
2340.1932992,0.021
2341.1278816,0.021
2342.062464,0.021
2342.9970464000003,0.021
2343.9316288,0.021
2344.8662112,0.021
2345.8007936,0.021
2346.735376,0.021
2347.6699584000003,0.021
2348.6045408,0.0217
2349.5391232,0.0227
2350.4737056,0.023
2351.408288,0.023
2352.3428704000003,0.0233
2353.2774528,0.0238
2354.2120352,0.0246
2355.1466176,0.0256
2356.0812,0.0263
2357.0157822,0.0268
2357.9503644,0.0273
2358.8849466,0.0278
2359.8195288,0.0286
2360.754111,0.0296
2361.6886934000004,0.03
2362.6232758,0.03
2363.5578582000003,0.03
2364.4924406,0.03
2365.427023,0.0303
2366.3616054000004,0.0308
2367.2961878,0.031
2368.2307702000003,0.031
2369.1653526,0.031
2370.099935,0.031
2371.0345174000004,0.031
2371.9690998,0.031
2372.9036822000003,0.0315
2373.8382646,0.0325
2374.772847,0.033
2375.7074294000004,0.033
2376.6420118,0.0332
2377.5765942000003,0.0337
2378.5111766,0.0357
2379.445759,0.0392
2380.3803414000004,0.0731
2381.3149238,0.1416
2382.2495062000003,0.2083
2383.1840886,0.2729
2384.118671,0.3557
2385.0532532,0.462
2385.9878354,0.545
2386.9224176,0.5966
2387.8569998,0.6372
2388.791582,0.662
2389.7261644,0.6876
2390.6607467999997,0.7144
2391.5953292,0.7439
2392.5299115999997,0.7776
2393.464494,0.81
2394.3990764,0.8402
2395.3336587999997,0.8818
2396.2682412,0.9429
2397.2028235999996,0.9824
2398.137406,0.9834
2399.0719884,0.9843
2400.0065707999997,0.9853
2400.9411532,0.9863
2401.8757355999996,0.9873
2402.810318,0.9882
2403.7449004,0.9887
2404.6794827999997,0.9893
2405.6140652,0.9903
2406.5486475999996,0.991
2407.48323,0.991
2408.4178122,0.991
2409.3523944,0.991
2410.2869766,0.9911
2411.2215588,0.9916
2412.156141,0.992
2413.0907234,0.992
2414.0253058,0.9922
2414.9598882,0.9932
2415.8944705999997,0.994
2416.829053,0.994
2417.7636354,0.994
2418.6982178,0.994
2419.6328002,0.994
2420.5673825999997,0.994
2421.501965,0.994
2422.4365474,0.994
2423.3711298,0.9938
2424.3057122,0.9928
2425.2402945999997,0.992
2426.174877,0.992
2427.1094594,0.992
2428.0440418,0.992
2428.9786242,0.992
2429.9132065999997,0.992
2430.847789,0.992
2431.7823714,0.992
2432.7169538,0.992
2433.6515362,0.992
2434.5861185999997,0.992
2435.520701,0.992
2436.4552832,0.992
2437.3898654,0.992
2438.3244476,0.992
2439.2590298,0.992
2440.193612,0.992
2441.1281944,0.992
2442.0627768,0.992
2442.9973592,0.993
2443.9319416,0.994
2444.866524,0.994
2445.8011064,0.994
2446.7356888,0.994
2447.6702712,0.994
2448.6048536,0.994
2449.539436,0.994
2450.4740184,0.994
2451.4086008,0.994
2452.3431832,0.994
2453.2777656,0.994
2454.212348,0.994
2455.1469304,0.994
2456.0815128,0.994
2457.0160952,0.994
2457.9506776,0.994
2458.88526,0.994
2459.8198424,0.994
2460.7544248,0.994
2461.6890072,0.994
2462.6235896,0.994
2463.558172,0.994
2464.4927542,0.994
2465.4273364,0.994
2466.3619186,0.994
2467.2965008,0.994
2468.231083,0.994
2469.1656654000003,0.994
2470.1002478,0.994
2471.0348302,0.994
2471.9694126,0.994
2472.903995,0.994
2473.8385774000003,0.994
2474.7731598,0.994
2475.7077422,0.994
2476.6423246,0.994
2477.576907,0.994
2478.5114894000003,0.994
2479.4460718,0.994
2480.3806542,0.994
2481.3152366,0.994
2482.249819,0.994
2483.1844014000003,0.994
2484.1189838,0.994
2485.0535662,0.994
2485.9881486,0.994
2486.922731,0.994
2487.8573132,0.994
2488.7918954,0.994
2489.7264776,0.994
2490.6610598,0.994
2491.595642,0.994
2492.5302244000004,0.994
2493.4648068,0.994
2494.3993892000003,0.994
2495.3339716,0.994
2496.268554,0.994
2497.2031364000004,0.994
2498.1377188,0.994
2499.0723012000003,0.994
2500.0068836,0.994
2500.941466,0.994
2501.8760484000004,0.994
2502.8106308,0.994
2503.7452132000003,0.994
2504.6797956,0.994
2505.614378,0.994
2506.5489604000004,0.994
2507.4835428,0.994
2508.4181252000003,0.994
2509.3527076,0.994
2510.28729,0.994
2511.2218724000004,0.994
2512.1564548,0.994
2513.0910372000003,0.994
2514.0256196,0.994
2514.960202,0.994
2515.8947842000002,0.994
2516.8293664000003,0.994
2517.7639486,0.994
2518.6985308,0.994
2519.633113,0.994
2520.5676954,0.994
2521.5022778,0.994
2522.4368602,0.994
2523.3714425999997,0.994
2524.306025,0.994
2525.2406074,0.9942
2526.1751897999998,0.9947
2527.1097722,0.995
2528.0443545999997,0.995
2528.978937,0.995
2529.9135194,0.995
2530.8481017999998,0.995
2531.7826842,0.995
2532.7172665999997,0.995
2533.651849,0.995
2534.5864314,0.995
2535.5210137999998,0.995
2536.4555962,0.995
2537.3901785999997,0.995
2538.324761,0.995
2539.2593434,0.995
2540.1939257999998,0.995
2541.1285082,0.995
2542.0630905999997,0.995
2542.997673,0.995
2543.9322552,0.995
2544.8668374,0.995
2545.8014196,0.995
2546.7360018,0.995
2547.670584,0.995
2548.6051664,0.995
2549.5397488,0.995
2550.4743312,0.995
2551.4089136,0.995
2552.343496,0.995
2553.2780784,0.995
2554.2126608,0.995
2555.1472432,0.995
2556.0818256,0.995
2557.016408,0.9953
2557.9509904,0.9963
2558.8855728,0.997
2559.8201552,0.997
2560.7547375999998,0.997
2561.68932,0.997
2562.6239024,0.997
2563.5584848,0.997
2564.4930672,0.997
2565.4276495999998,0.997
2566.362232,0.997
2567.2968142,0.997
2568.2313964,0.997
2569.1659786,0.997
2570.1005608,0.997
2571.035143,0.997
2571.9697254000002,0.997
2572.9043078,0.997
2573.8388902,0.997
2574.7734726,0.997
2575.708055,0.997
2576.6426374000002,0.997
2577.5772198,0.997
2578.5118022,0.997
2579.4463846,0.997
2580.380967,0.997
2581.3155494000002,0.997
2582.2501318,0.997
2583.1847142,0.997
2584.1192966,0.997
2585.053879,0.997
2585.9884614000002,0.997
2586.9230438,0.997
2587.8576262,0.997
2588.7922086,0.997
2589.726791,0.9975
2590.6613734000002,0.998
2591.5959558,0.998
2592.5305382,0.998
2593.4651206,0.998
2594.399703,0.998
2595.3342852,0.998
2596.2688674,0.998
2597.2034496,0.998
2598.1380318,0.998
2599.072614,0.998
2600.0071964000003,0.998
2600.9417788,0.998
2601.8763612000002,0.998
2602.8109436,0.998
2603.745526,0.998
2604.6801084000003,0.998
2605.6146908,0.998
2606.5492732000002,0.998
2607.4838556,0.998
2608.418438,0.998
2609.3530204000003,0.998
2610.2876028,0.998
2611.2221852000002,0.998
2612.1567676,0.998
2613.09135,0.998
2614.0259324000003,0.998
2614.9605148,0.998
2615.8950972000002,0.998
2616.8296796,0.998
2617.764262,0.998
2618.6988442,0.998
2619.6334264,0.998
2620.5680085999998,0.998
2621.5025908,0.998
2622.437173,0.998
2623.3717554,0.998
2624.3063377999997,0.998
2625.2409202,0.998
2626.1755025999996,0.998
2627.110085,0.998
2628.0446674,0.998
2628.9792497999997,0.998
2629.9138322,0.998
2630.8484145999996,0.998
2631.782997,0.998
2632.7175794,0.998
2633.6521617999997,0.998
2634.5867442,0.998
2635.5213265999996,0.998
2636.455909,0.998
2637.3904914,0.998
2638.3250737999997,0.998
2639.2596562,0.998
2640.1942385999996,0.998
2641.128821,0.998
2642.0634034,0.998
2642.9979857999997,0.998
2643.9325682,0.998
2644.8671505999996,0.998
2645.801733,0.998
2646.7363152,0.998
2647.6708974,0.998
2648.6054796,0.998
2649.5400618,0.998
2650.474644,0.998
2651.4092264,0.9987
2652.3438088,0.9996
2653.2783912,1.0
2654.2129735999997,1.0
2655.147556,1.0
2656.0821384,1.0
2657.0167208,0.9994
2657.9513032,0.9984
2658.8858855999997,0.998
2659.820468,0.998
2660.7550504,0.998
2661.6896328,0.998
2662.6242152,0.998
2663.5587975999997,0.998
2664.49338,0.998
2665.4279624,0.998
2666.3625448,0.998
2667.2971272,0.998
2668.2317095999997,0.998
2669.166292,0.998
2670.1008744,0.9977
2671.0354568,0.9972
2671.9700392,0.997
2672.9046215999997,0.997
2673.839204,0.997
2674.7737862,0.997
2675.7083684,0.997
2676.6429506,0.997
2677.5775328,0.997
2678.512115,0.997
2679.4466974,0.997
2680.3812798,0.997
2681.3158622,0.997
2682.2504446,0.997
2683.185027,0.997
2684.1196094,0.997
2685.0541918,0.9972
2685.9887742,0.9977
2686.9233566,0.998
2687.857939,0.998
2688.7925214,0.998
2689.7271038,0.998
2690.6616862,0.998
2691.5962686,0.998
2692.530851,0.998
2693.4654334,0.998
2694.4000158,0.998
2695.3345982,0.998
2696.2691806,0.998
2697.203763,0.998
2698.1383452,0.998
2699.0729274,0.998
2700.0075096,0.998
2700.9420918,0.998
2701.876674,0.998
2702.8112564000003,0.998
2703.7458388,0.998
2704.6804212,0.998
2705.6150036,0.998
2706.549586,0.998
2707.4841684000003,0.998
2708.4187508,0.998
2709.3533332,0.998
2710.2879156,0.998
2711.222498,0.998
2712.1570804000003,0.998
2713.0916628,0.998
2714.0262452,0.998
2714.9608276,0.998
2715.89541,0.998
2716.8299924000003,0.998
2717.7645748,0.998
2718.6991572,0.998
2719.6337396,0.998
2720.568322,0.998
2721.5029044000003,0.998
2722.4374868,0.998
2723.3720692,0.998
2724.3066516,0.998
2725.241234,0.998
2726.1758162,0.998
2727.1103984,0.998
2728.0449806,0.998
2728.9795628,0.998
2729.914145,0.998
2730.8487274000004,0.998
2731.7833098,0.998
2732.7178922000003,0.998
2733.6524746,0.998
2734.587057,0.998
2735.5216394000004,0.998
2736.4562218,0.998
2737.3908042000003,0.998
2738.3253866,0.998
2739.259969,0.998
2740.1945514000004,0.998
2741.1291338,0.998
2742.0637162000003,0.998
2742.9982986,0.998
2743.932881,0.998
2744.8674634000004,0.998
2745.8020458,0.998
2746.7366282000003,0.998
2747.6712106,0.998
2748.605793,0.998
2749.5403752,0.998
2750.4749574,0.998
2751.4095396,0.998
2752.3441218,0.998
2753.278704,0.998
2754.2132864,0.998
2755.1478687999997,0.998
2756.0824512,0.998
2757.0170335999996,0.998
2757.951616,0.998
2758.8861984,0.998
2759.8207807999997,0.998
2760.7553632,0.998
2761.6899455999996,0.998
2762.624528,0.998
2763.5591104,0.998
2764.4936927999997,0.998
2765.4282752,0.998
2766.3628575999996,0.998
2767.29744,0.998
2768.2320224,0.998
2769.1666047999997,0.998
2770.1011872,0.998
2771.0357695999996,0.998
2771.970352,0.998
2772.9049344,0.998
2773.8395167999997,0.998
2774.7740992,0.998
2775.7086815999996,0.998
2776.643264,0.998
2777.5778462,0.998
2778.5124284,0.998
2779.4470106,0.998
2780.3815928,0.998
2781.316175,0.998
2782.2507574,0.998
2783.1853398,0.998
2784.1199222,0.998
2785.0545045999997,0.998
2785.989087,0.998
2786.9236694,0.998
2787.8582518,0.998
2788.7928342,0.998
2789.7274165999997,0.998
2790.661999,0.998
2791.5965814,0.998
2792.5311638,0.998
2793.4657462,0.998
2794.4003285999997,0.998
2795.334911,0.998
2796.2694934,0.998
2797.2040758,0.998
2798.1386582,0.998
2799.0732405999997,0.998
2800.007823,0.998
2800.9424054,0.998
2801.8769878,0.998
2802.8115702,0.998
2803.7461525999997,0.998
2804.680735,0.998
2805.6153172,0.998
2806.5498994,0.998
2807.4844816,0.998
2808.4190638,0.998
2809.353646,0.998
2810.2882284,0.998
2811.2228108,0.998
2812.1573932,0.998
2813.0919756,0.998
2814.026558,0.998
2814.9611404,0.998
2815.8957228,0.998
2816.8303052,0.998
2817.7648876,0.998
2818.69947,0.998
2819.6340524,0.998
2820.5686348,0.998
2821.5032172,0.998
2822.4377996,0.998
2823.372382,0.998
2824.3069644,0.998
2825.2415468,0.998
2826.1761292,0.998
2827.1107116,0.998
2828.045294,0.998
2828.9798762,0.998
2829.9144584,0.998
2830.8490406,0.998
2831.7836228,0.998
2832.718205,0.998
2833.6527874000003,0.9984
2834.5873698,0.9994
2835.5219522,0.9996
2836.4565346,0.9986
2837.391117,0.9986
2838.3256994000003,1.0001
2839.2602818,1.0012
2840.1948642,1.0017
2841.1294466,1.002
2842.064029,1.002
2842.9986114000003,1.002
2843.9331938,1.002
2844.8677762,1.002
2845.8023586,1.002
2846.736941,1.002
2847.6715234000003,1.002
2848.6061058,1.0018
2849.5406882,1.0013
2850.4752706,1.001
2851.409853,1.001
2852.3444354000003,1.0005
2853.2790178,0.999
2854.2136002,0.9975
2855.1481826,0.9961
2856.082765,0.9946
2857.0173472,0.9931
2857.9519294,0.992
2858.8865116,0.992
2859.8210938,0.9919
2860.755676,0.9914
2861.6902584000004,0.991
2862.6248408,0.991
2863.5594232000003,0.991
2864.4940056,0.991
2865.428588,0.991
2866.3631704000004,0.991
2867.2977528,0.991
2868.2323352000003,0.991
2869.1669176,0.9911
2870.1015,0.9916
2871.0360824000004,0.992
2871.9706648,0.992
2872.9052472000003,0.9922
2873.8398296,0.9932
2874.774412,0.994
2875.7089944000004,0.994
2876.6435768,0.9941
2877.5781592000003,0.9946
2878.5127416,0.995
2879.447324,0.995
2880.3819062000002,0.9951
2881.3164884000003,0.9961
2882.2510706,0.997
2883.1856528,0.997
2884.120235,0.997
2885.0548174,0.997
2885.9893998,0.997
2886.9239822,0.9975
2887.8585645999997,0.998
2888.793147,0.998
2889.7277294,0.998
2890.6623117999998,0.998
2891.5968942,0.998
2892.5314765999997,0.998
2893.466059,0.998
2894.4006414,0.998
2895.3352237999998,0.998
2896.2698062,0.999
2897.2043885999997,1.0
2898.138971,1.0
2899.0735534,1.0
2900.0081357999998,1.0
2900.9427182,1.0
2901.8773005999997,1.0005
2902.811883,1.001
2903.7464654,1.001
2904.6810477999998,1.001
2905.6156302,1.001
2906.5502125999997,1.001
2907.484795,1.0015
2908.4193772,1.002
2909.3539594,1.002
2910.2885416,1.002
2911.2231238,1.0029
2912.157706,1.0039
2913.0922884,1.004
2914.0268708,1.004
2914.9614532,1.004
2915.8960356,1.004
2916.830618,1.004
2917.7652004,1.004
2918.6997828,1.004
2919.6343652,1.004
2920.5689476,1.0031
2921.50353,1.0021
2922.4381124,1.002
2923.3726948,1.002
2924.3072772,1.0012
2925.2418595999998,1.0002
2926.176442,0.9988
2927.1110244,0.9973
2928.0456068,0.995
2928.9801892,0.9925
2929.9147715999998,0.9908
2930.849354,0.9893
2931.7839364,0.9878
2932.7185188,0.9863
2933.6531012,0.9856
2934.5876835999998,0.9851
2935.522266,0.9846
2936.4568482,0.9841
2937.3914304,0.984
2938.3260126,0.984
2939.2605948,0.984
2940.195177,0.984
2941.1297594000002,0.984
2942.0643418,0.984
2942.9989242,0.9844
2943.9335066,0.9849
2944.868089,0.9854
2945.8026714000002,0.9858
2946.7372538,0.986
2947.6718362,0.986
2948.6064186,0.986
2949.541001,0.986
2950.4755834000002,0.986
2951.4101658,0.986
2952.3447482,0.9866
2953.2793306,0.9876
2954.213913,0.988
2955.1484954000002,0.988
2956.0830778,0.988
2957.0176602,0.988
2957.9522426,0.988
2958.886825,0.988
2959.8214072,0.988
2960.7559894,0.988
2961.6905716,0.9883
2962.6251538,0.9888
2963.559736,0.989
2964.4943184000003,0.989
2965.4289008,0.989
2966.3634832000002,0.989
2967.2980656,0.989
2968.232648,0.989
2969.1672304000003,0.9895
2970.1018128,0.9905
2971.0363952000002,0.9913
2971.9709776,0.9918
2972.90556,0.992
2973.8401424000003,0.992
2974.7747248,0.992
2975.7093072000002,0.992
2976.6438896,0.992
2977.578472,0.992
2978.5130544000003,0.992
2979.4476368,0.992
2980.3822192000002,0.992
2981.3168016,0.992
2982.251384,0.992
2983.1859664000003,0.992
2984.1205488,0.992
2985.0551312000002,0.992
2985.9897136,0.992
2986.924296,0.992
2987.8588782,0.992
2988.7934604,0.992
2989.7280425999998,0.992
2990.6626248,0.992
2991.597207,0.992
2992.5317894,0.992
2993.4663717999997,0.992
2994.4009542,0.992
2995.3355365999996,0.992
2996.270119,0.992
2997.2047014,0.992
2998.1392837999997,0.992
2999.0738662,0.992
3000.0084485999996,0.992
3000.943031,0.992
3001.8776134,0.992
3002.8121957999997,0.992
3003.7467782,0.992
3004.6813605999996,0.992
3005.615943,0.992
3006.5505254,0.992
3007.4851077999997,0.992
3008.4196902,0.992
3009.3542725999996,0.992
3010.288855,0.992
3011.2234374,0.992
3012.1580197999997,0.992
3013.0926022,0.992
3014.0271845999996,0.992
3014.961767,0.992
3015.8963492,0.992
3016.8309314,0.992
3017.7655136,0.992
3018.7000958,0.992
3019.634678,0.992
3020.5692604,0.992
3021.5038428,0.992
3022.4384252,0.992
3023.3730075999997,0.992
3024.30759,0.992
3025.2421724,0.992
3026.1767548,0.992
3027.1113372,0.992
3028.0459195999997,0.992
3028.980502,0.992
3029.9150844,0.992
3030.8496668,0.992
3031.7842492,0.992
3032.7188315999997,0.992
3033.653414,0.992
3034.5879964,0.992
3035.5225788,0.992
3036.4571612,0.992
3037.3917435999997,0.9915
3038.326326,0.991
3039.2609082,0.991
3040.1954904,0.991
3041.1300726,0.991
3042.0646548,0.991
3042.999237,0.991
3043.9338194,0.991
3044.8684018,0.991
3045.8029842,0.991
3046.7375666,0.991
3047.672149,0.991
3048.6067314,0.991
3049.5413138,0.991
3050.4758962,0.991
3051.4104786,0.991
3052.345061,0.991
3053.2796434,0.991
3054.2142258,0.991
3055.1488082,0.991
3056.0833906,0.991
3057.017973,0.991
3057.9525554,0.991
3058.8871378,0.991
3059.8217202,0.991
3060.7563026,0.991
3061.690885,0.9915
3062.6254674,0.992
3063.5600498,0.992
3064.4946322,0.992
3065.4292146,0.992
3066.363797,0.992
3067.2983792,0.992
3068.2329614,0.992
3069.1675436,0.992
3070.1021258,0.992
3071.036708,0.992
3071.9712904000003,0.992
3072.9058728,0.992
3073.8404552,0.992
3074.7750376,0.992
3075.70962,0.992
3076.6442024000003,0.9928
3077.5787848,0.9938
3078.5133672,0.994
3079.4479496,0.994
3080.382532,0.994
3081.3171144000003,0.994
3082.2516968,0.994
3083.1862792,0.994
3084.1208616,0.994
3085.055444,0.994
3085.9900264000003,0.994
3086.9246088,0.994
3087.8591912,0.994
3088.7937736,0.994
3089.728356,0.994
3090.6629382,0.994
3091.5975204,0.994
3092.5321026,0.994
3093.4666848,0.994
3094.401267,0.994
3095.3358494000004,0.994
3096.2704318,0.994
3097.2050142000003,0.994
3098.1395966,0.994
3099.074179,0.994
3100.0087614000004,0.994
3100.9433438,0.994
3101.8779262000003,0.994
3102.8125086,0.994
3103.747091,0.994
3104.6816734000004,0.994
3105.6162558,0.994
3106.5508382000003,0.994
3107.4854206,0.994
3108.420003,0.994
3109.3545854000004,0.994
3110.2891678,0.994
3111.2237502000003,0.994
3112.1583326,0.994
3113.092915,0.994
3114.0274974000004,0.994
3114.9620798,0.994
3115.8966622000003,0.994
3116.8312446,0.994
3117.765827,0.994
3118.7004092,0.994
3119.6349914,0.994
3120.5695736,0.994
3121.5041558,0.994
3122.438738,0.994
3123.3733204,0.994
3124.3079027999997,0.994
3125.2424852,0.9942
3126.1770675999996,0.9947
3127.11165,0.995
3128.0462324,0.995
3128.9808147999997,0.995
3129.9153972,0.995
3130.8499795999996,0.995
3131.784562,0.995
3132.7191444,0.995
3133.6537267999997,0.995
3134.5883092,0.995
3135.5228915999996,0.995
3136.457474,0.9954
3137.3920564,0.9964
3138.3266387999997,0.997
3139.2612212,0.997
3140.1958035999996,0.997
3141.130386,0.997
3142.0649684,0.997
3142.9995507999997,0.997
3143.9341332,0.997
3144.8687155999996,0.997
3145.803298,0.997
3146.7378802,0.997
3147.6724624,0.997
3148.6070446,0.997
3149.5416268,0.9972
3150.476209,0.9977
3151.4107914,0.998
3152.3453738,0.998
3153.2799562,0.998
3154.2145385999997,0.998
3155.149121,0.998
3156.0837034,0.998
3157.0182858,0.998
3157.9528682,0.998
3158.8874505999997,0.998
3159.822033,0.998
3160.7566154,0.998
3161.6911978,0.998
3162.6257802,0.998
3163.5603625999997,0.998
3164.494945,0.998
3165.4295274,0.998
3166.3641098,0.998
3167.2986922,0.998
3168.2332745999997,0.998
3169.167857,0.998
3170.1024392,0.998
3171.0370214,0.998
3171.9716036,0.998
3172.9061858,0.998
3173.840768,0.998
3174.7753504,0.998
3175.7099328,0.998
3176.6445152,0.998
3177.5790976,0.998
3178.51368,0.998
3179.4482624,0.998
3180.3828448,0.998
3181.3174272,0.998
3182.2520096,0.998
3183.186592,0.998
3184.1211744,0.998
3185.0557568,0.998
3185.9903392,0.998
3186.9249216,0.998
3187.859504,0.998
3188.7940864,0.998
3189.7286688,0.998
3190.6632512,0.998
3191.5978336,0.998
3192.532416,0.998
3193.4669984,0.998
3194.4015808,0.998
3195.3361632,0.998
3196.2707456,0.998
3197.205328,0.998
3198.1399102,0.998
3199.0744924,0.998
3200.0090746,0.998
3200.9436568,0.998
3201.878239,0.998
3202.8128214000003,0.998
3203.7474038,0.998
3204.6819862,0.998
3205.6165686,0.998
3206.551151,0.998
3207.4857334000003,0.998
3208.4203158,0.998
3209.3548982,0.998
3210.2894806,0.998
3211.224063,0.998
3212.1586454000003,0.998
3213.0932278,0.998
3214.0278102,0.998
3214.9623926,0.998
3215.896975,0.998
3216.8315574000003,0.998
3217.7661398,0.998
3218.7007222,0.998
3219.6353046,0.998
3220.569887,0.998
3221.5044692,0.998
3222.4390514,0.998
3223.3736336,0.998
3224.3082158,0.998
3225.242798,0.998
3226.1773804000004,0.998
3227.1119628,0.998
3228.0465452000003,0.998
3228.9811276,0.998
3229.91571,0.998
3230.8502924000004,0.998
3231.7848748,0.998
3232.7194572000003,0.998
3233.6540396,0.998
3234.588622,0.998
3235.5232044000004,0.998
3236.4577868,0.998
3237.3923692000003,0.998
3238.3269516,0.998
3239.261534,0.998
3240.1961164000004,0.998
3241.1306988,0.998
3242.0652812000003,0.998
3242.9998636,0.998
3243.934446,0.998
3244.8690284000004,0.998
3245.8036108,0.998
3246.7381932000003,0.998
3247.6727756,0.998
3248.607358,0.998
3249.5419402,0.998
3250.4765224000002,0.998
3251.4111046,0.9987
3252.3456868,0.9996
3253.280269,1.0
3254.2148514,1.0
3255.1494337999998,1.0
3256.0840162,1.0
3257.0185985999997,1.0
3257.953181,1.0
3258.8877634,1.0
3259.8223457999998,1.0
3260.7569282,1.0
3261.6915105999997,1.0
3262.626093,1.0
3263.5606754,1.0
3264.4952577999998,1.0
3265.4298402,1.0
3266.3644225999997,1.0
3267.299005,1.0
3268.2335874,1.0
3269.1681697999998,1.0
3270.1027522,1.0
3271.0373345999997,1.0
3271.971917,1.0
3272.9064994,1.0
3273.8410817999998,1.0
3274.7756642,1.0
3275.7102465999997,1.0
3276.644829,1.0
3277.5794112,1.0
3278.5139934,1.0
3279.4485756,1.0
3280.3831578,1.0
3281.31774,1.0
3282.2523224,1.0
3283.1869048,1.0
3284.1214872,1.0
3285.0560696,1.0
3285.990652,1.0
3286.9252344,1.0002
3287.8598168,1.0007
3288.7943992,1.001
3289.7289815999998,1.001
3290.663564,1.001
3291.5981464,1.001
3292.5327288,1.001
3293.4673112,1.001
3294.4018935999998,1.001
3295.336476,1.001
3296.2710584,1.001
3297.2056408,1.001
3298.1402232,1.001
3299.0748055999998,1.001
3300.009388,1.001
3300.9439702,1.001
3301.8785524,1.001
3302.8131346,1.001
3303.7477168,1.001
3304.682299,1.001
3305.6168814000002,1.001
3306.5514638,1.001
3307.4860462,1.001
3308.4206286,1.001
3309.355211,1.001
3310.2897934000002,1.001
3311.2243758,1.001
3312.1589582,1.001
3313.0935406,1.001
3314.028123,1.001
3314.9627054000002,1.001
3315.8972878,1.001
3316.8318702,1.001
3317.7664526,1.001
3318.701035,1.001
3319.6356174000002,1.001
3320.5701998,1.001
3321.5047822,1.001
3322.4393646,1.001
3323.373947,1.001
3324.3085294,1.001
3325.2431118,1.001
3326.1776942,1.001
3327.1122766,1.001
3328.046859,1.001
3328.9814412,1.001
3329.9160234,1.001
3330.8506056,1.001
3331.7851878,1.001
3332.71977,1.001
3333.6543524000003,1.001
3334.5889348,1.001
3335.5235172000002,1.001
3336.4580996,1.001
3337.392682,1.001
3338.3272644000003,1.001
3339.2618468,1.001
3340.1964292000002,1.001
3341.1310116,1.001
3342.065594,1.001
3343.0001764000003,1.001
3343.9347588,1.001
3344.8693412000002,1.001
3345.8039236,1.001
3346.738506,1.001
3347.6730884000003,1.001
3348.6076708,1.001
3349.5422532000002,1.001
3350.4768356,1.001
3351.411418,1.001
3352.3460002,1.001
3353.2805824,1.001
3354.2151645999998,1.001
3355.1497468,1.001
3356.084329,1.001
3357.0189114,1.001
3357.9534937999997,1.001
3358.8880762,1.001
3359.8226585999996,1.001
3360.757241,1.001
3361.6918234,1.001
3362.6264057999997,1.001
3363.5609882,1.001
3364.4955705999996,1.001
3365.430153,1.001
3366.3647354,1.001
3367.2993177999997,1.001
3368.2339002,1.001
3369.1684825999996,1.001
3370.103065,1.001
3371.0376474,1.001
3371.9722297999997,1.001
3372.9068122,1.001
3373.8413945999996,1.001
3374.775977,1.001
3375.7105594,1.001
3376.6451417999997,1.001
3377.5797242,1.001
3378.5143065999996,1.001
3379.448889,1.001
3380.3834712,1.001
3381.3180534,1.001
3382.2526356,1.001
3383.1872178,1.001
3384.1218,1.001
3385.0563824,1.001
3385.9909648,1.001
3386.9255472,1.001
3387.8601295999997,1.001
3388.794712,1.001
3389.7292944,1.001
3390.6638768,1.001
3391.5984592,1.001
3392.5330415999997,1.001
3393.467624,1.001
3394.4022064,1.001
3395.3367888,1.001
3396.2713712,1.001
3397.2059535999997,1.001
3398.140536,1.001
3399.0751184,1.001
3400.0097008,1.001
3400.9442832,1.001
3401.8788655999997,1.001
3402.813448,1.001
3403.7480304,1.001
3404.6826128,1.001
3405.6171952,1.001
3406.5517775999997,1.001
3407.48636,1.001
3408.4209422,1.001
3409.3555244,1.001
3410.2901066,1.001
3411.2246888,1.001
3412.159271,1.001
3413.0938534,1.001
3414.0284358,1.001
3414.9630182,1.001
3415.8976006,1.001
3416.832183,1.001
3417.7667654,1.001
3418.7013478,1.001
3419.6359302,1.001
3420.5705126,1.001
3421.505095,1.001
3422.4396774,1.001
3423.3742598,1.001
3424.3088422,1.001
3425.2434246,1.001
3426.178007,1.001
3427.1125894,1.001
3428.0471718,1.001
3428.9817542,1.001
3429.9163366,1.001
3430.850919,1.001
3431.7855012,1.001
3432.7200834,1.001
3433.6546656,1.001
3434.5892478,1.001
3435.52383,1.001
3436.4584124000003,1.001
3437.3929948,1.001
3438.3275772,1.001
3439.2621596,1.001
3440.196742,1.001
3441.1313244000003,1.001
3442.0659068,1.001
3443.0004892,1.0008
3443.9350716,1.0003
3444.869654,1.0
3445.8042364000003,1.0
3446.7388188,1.0
3447.6734012,1.0
3448.6079836,1.0
3449.542566,1.0
3450.4771484000003,1.0
3451.4117308,1.0
3452.3463132,1.0
3453.2808956,1.0
3454.215478,1.0
3455.1500604000003,1.0
3456.0846428,1.0
3457.0192252,1.0
3457.9538076,1.0
3458.88839,1.0
3459.8229722,1.0
3460.7575544,1.0
3461.6921366,1.0
3462.6267188,1.0
3463.561301,1.0
3464.4958834000004,1.0
3465.4304658,1.0
3466.3650482000003,1.0
3467.2996306,1.0
3468.234213,1.0
3469.1687954000004,1.0
3470.1033778,1.0
3471.0379602000003,1.0
3471.9725426,1.0
3472.907125,1.0
3473.8417074000004,1.0
3474.7762898,1.0
3475.7108722000003,1.0
3476.6454546,1.0
3477.580037,1.0
3478.5146194000004,1.0
3479.4492018,1.0
3480.3837842000003,1.0
3481.3183666,1.0
3482.252949,1.0
3483.1875314000004,1.0
3484.1221138,1.0
3485.0566962000003,1.0
3485.9912786,1.0
3486.925861,1.0
3487.8604432,1.0
3488.7950254,1.0
3489.7296076,1.0
3490.6641898,1.0
3491.598772,0.9999
3492.5333544,0.9989
3493.4679367999997,0.998
3494.4025192,0.998
3495.3371015999996,0.998
3496.271684,0.998
3497.2062664,0.998
3498.1408487999997,0.9975
3499.0754312,0.997
3500.0100135999996,0.997
3500.944596,0.997
3501.8791784,0.997
3502.8137607999997,0.997
3503.7483432,0.997
3504.6829255999996,0.997
3505.617508,0.996
3506.5520904,0.995
3507.4866727999997,0.995
3508.4212552,0.995
3509.3558375999996,0.995
3510.29042,0.995
3511.2250022,0.995
3512.1595844,0.995
3513.0941666,0.995
3514.0287488,0.995
3514.963331,0.9945
3515.8979134,0.9941
3516.8324958,0.994
3517.7670782,0.994
3518.7016605999997,0.9931
3519.636243,0.9921
3520.5708254,0.992
3521.5054078,0.992
3522.4399902,0.9916
3523.3745725999997,0.9911
3524.309155,0.991
3525.2437374,0.991
3526.1783198,0.9902
3527.1129022,0.9892
3528.0474845999997,0.989
3528.982067,0.989
3529.9166494,0.9886
3530.8512318,0.9881
3531.7858142,0.9872
3532.7203965999997,0.9862
3533.654979,0.986
3534.5895614,0.986
3535.5241438,0.9856
3536.4587262,0.9851
3537.3933085999997,0.9839
3538.327891,0.9824
3539.2624732,0.9816
3540.1970554,0.9811
3541.1316376,0.9803
3542.0662198,0.9793
3543.000802,0.9765
3543.9353844,0.973
3544.8699668,0.9706
3545.8045492,0.9686
3546.7391316,0.967
3547.673714,0.9655
3548.6082964,0.963
3549.5428788,0.96
3550.4774612,0.957
3551.4120436,0.954
3552.346626,0.9504
3553.2812084,0.9464
3554.2157908,0.9431
3555.1503732,0.9401
3556.0849556,0.9368
3557.019538,0.9334
3557.9541204,0.9302
3558.8887028,0.9272
3559.8232852,0.9221
3560.7578676,0.9156
3561.69245,0.91
3562.6270322,0.905
3563.5616144,0.9024
3564.4961966,0.9014
3565.4307788,0.8993
3566.365361,0.8963
3567.2999434000003,0.8947
3568.2345258,0.8942
3569.1691082,0.8924
3570.1036906,0.8894
3571.038273,0.8854
3571.9728554000003,0.8804
3572.9074378,0.8752
3573.8420202,0.8697
3574.7766026,0.8633
3575.711185,0.8558
3576.6457674000003,0.8496
3577.5803498,0.8446
3578.5149322,0.8328
3579.4495146,0.8132
3580.384097,0.794
3581.3186794000003,0.7751
3582.2532618,0.7581
3583.1878442,0.7432
3584.1224266,0.7243
3585.057009,0.7005
3585.9915914000003,0.6842
3586.9261738,0.6777
3587.8607562,0.6713
3588.7953386,0.6648
3589.729921,0.6608
3590.6645032,0.6603
3591.5990854,0.6602
3592.5336676,0.6607
3593.4682498,0.6619
3594.402832,0.6644
3595.3374144000004,0.6665
3596.2719968,0.668
3597.2065792000003,0.6709
3598.1411616,0.6764
3599.075744,0.6828
3600.0103264000004,0.6907
3600.9449088,0.7074
3601.8794912000003,0.7412
3602.8140736,0.783
3603.748656,0.8415
3604.6832384000004,0.882
3605.6178208,0.882
3606.5524032000003,0.8753
3607.4869856,0.8524
3608.421568,0.8318
3609.3561504000004,0.8169
3610.2907328,0.7946
3611.2253152000003,0.7514
3612.1598976,0.7149
3613.09448,0.6985
3614.0290624000004,0.6816
3614.9636448,0.6627
3615.8982272000003,0.6442
3616.8328096,0.6272
3617.767392,0.6138
3618.7019742,0.6128
3619.6365564000002,0.6123
3620.5711386,0.6138
3621.5057208,0.6173
3622.440303,0.6287
3623.3748854,0.6401
3624.3094677999998,0.6515
3625.2440502,0.6629
3626.1786325999997,0.6743
3627.113215,0.6855
3628.0477974,0.6949
3628.9823797999998,0.7047
3629.9169622,0.7171
3630.8515445999997,0.7311
3631.786127,0.7559
3632.7207094,0.7822
3633.6552917999998,0.8204
3634.5898742,0.857
3635.5244565999997,0.8781
3636.459039,0.8982
3637.3936214,0.9101
3638.3282037999998,0.9222
3639.2627862,0.9361
3640.1973685999997,0.9495
3641.131951,0.9565
3642.0665332,0.9634
3643.0011154,0.9698
3643.9356976,0.976
3644.8702798,0.977
3645.804862,0.978
3646.7394444,0.978
3647.6740268,0.978
3648.6086092,0.978
3649.5431916,0.978
3650.477774,0.977
3651.4123564,0.976
3652.3469388,0.9755
3653.2815212,0.975
3654.2161035999998,0.9716
3655.150686,0.9681
3656.0852684,0.9617
3657.0198508,0.9552
3657.9544332,0.9478
3658.8890155999998,0.9404
3659.823598,0.9372
3660.7581804,0.9342
3661.6927628,0.9243
3662.6273452,0.9138
3663.5619275999998,0.9116
3664.49651,0.9101
3665.4310924,0.9073
3666.3656748,0.9043
3667.3002572,0.9
3668.2348395999998,0.8956
3669.169422,0.8828
3670.1040042,0.8689
3671.0385864,0.8521
3671.9731686,0.8347
3672.9077508,0.8227
3673.842333,0.8116
3674.7769154000002,0.8054
3675.7114978,0.7999
3676.6460802,0.7953
3677.5806626,0.7908
3678.515245,0.7863
3679.4498274000002,0.7819
3680.3844098,0.761
3681.3189922,0.7361
3682.2535746,0.7145
3683.188157,0.6936
3684.1227394000002,0.682
3685.0573218,0.6731
3685.9919042,0.6619
3686.9264866,0.65
3687.861069,0.6425
3688.7956514,0.6366
3689.7302338,0.6288
3690.6648162,0.6204
3691.5993986,0.6119
3692.533981,0.6033
3693.4685632,0.5945
3694.4031454,0.5856
3695.3377276,0.583
3696.2723098,0.583
3697.206892,0.5916
3698.1414744000003,0.6041
3699.0760568,0.6114
3700.0106392000002,0.6164
3700.9452216,0.6352
3701.879804,0.661
3702.8143864000003,0.6869
3703.7489688,0.7127
3704.6835512000002,0.7382
3705.6181336,0.7635
3706.552716,0.7745
3707.4872984000003,0.777
3708.4218808,0.7523
3709.3564632000002,0.7101
3710.2910456,0.6629
3711.225628,0.6122
3712.1602104000003,0.5714
3713.0947928,0.5372
3714.0293752000002,0.5131
3714.9639576,0.4962
3715.89854,0.489
3716.8331224000003,0.489
3717.7677048,0.4912
3718.7022872000002,0.4952
3719.6368696,0.5035
3720.571452,0.5154
3721.5060342,0.5275
3722.4406164,0.54
3723.3751985999997,0.5508
3724.3097807999998,0.5603
3725.244363,0.5695
3726.1789454,0.5784
3727.1135277999997,0.5907
3728.0481102,0.6066
3728.9826925999996,0.6324
3729.917275,0.6695
3730.8518574,0.7065
3731.7864397999997,0.7432
3732.7210222,0.779
3733.6556045999996,0.8138
3734.590187,0.8463
3735.5247694,0.8761
3736.4593517999997,0.9024
3737.3939342,0.9243
3738.3285165999996,0.9418
3739.263099,0.9532
3740.1976814,0.9656
3741.1322637999997,0.9795
3742.0668462,0.9897
3743.0014285999996,0.9942
3743.936011,0.9972
3744.8705934,0.9977
3745.8051757999997,0.9984
3746.7397582,0.9993
3747.6743405999996,1.0
3748.608923,1.0
3749.5435052,1.0002
3750.4780874,1.0007
3751.4126696,1.001
3752.3472518,1.001
3753.281834,1.0012
3754.2164164,1.0017
3755.1509988,1.002
3756.0855812,1.002
3757.0201635999997,1.002
3757.954746,1.002
3758.8893284,1.002
3759.8239108,1.002
3760.7584932,1.002
3761.6930755999997,1.002
3762.627658,1.002
3763.5622404,1.002
3764.4968228,1.002
3765.4314052,1.002
3766.3659875999997,1.002
3767.30057,1.002
3768.2351524,1.002
3769.1697348,1.002
3770.1043172,1.002
3771.0388995999997,1.002
3771.973482,1.002
3772.9080642,1.002
3773.8426464,1.002
3774.7772286,1.002
3775.7118108,1.002
3776.646393,1.002
3777.5809754,1.0019
3778.5155578,1.0014
3779.4501402,1.001
3780.3847226,1.001
3781.319305,1.001
3782.2538874,1.001
3783.1884698,1.001
3784.1230522,1.001
3785.0576346,1.001
3785.992217,1.001
3786.9267994,1.001
3787.8613818,1.001
3788.7959642,1.001
3789.7305466,1.001
3790.665129,1.001
3791.5997114,1.001
3792.5342938,1.001
3793.4688762,1.001
3794.4034586,1.001
3795.338041,1.001
3796.2740205,1.0009
3797.21,0.9974
