477.0,0.8725
478.0,0.8727
479.0,0.8728
480.0,0.8731
481.0,0.8731
482.0,0.8731
483.0,0.8731
484.0,0.8731
485.0,0.8731
486.0,0.8731
487.0,0.8731
488.0,0.873
489.0,0.8727
490.0,0.8723
491.0,0.872
492.0,0.8717
493.0,0.8713
494.0,0.871
495.0,0.8707
496.0,0.8703
497.0,0.87
498.0,0.8697
499.0,0.8694
500.0,0.8691
501.0,0.8688
502.0,0.8685
503.0,0.8683
504.0,0.868
505.0,0.8677
506.0,0.8661
507.0,0.8671
508.0,0.8668
509.0,0.8666
510.0,0.8663
511.0,0.8661
512.0,0.8658
513.0,0.8655
514.0,0.8654
515.0,0.8654
516.0,0.8654
517.0,0.8655
518.0,0.8655
519.0,0.8655
520.0,0.8656
521.0,0.8656
522.0,0.8656
523.0,0.8657
524.0,0.8657
525.0,0.8657
526.0,0.8661
527.0,0.8665
528.0,0.8668
529.0,0.8673
530.0,0.8678
531.0,0.8678
532.0,0.8677
533.0,0.8674
534.0,0.8671
535.0,0.8668
536.0,0.8665
537.0,0.8659
538.0,0.8652
539.0,0.8645
540.0,0.8639
541.0,0.8632
542.0,0.8625
543.0,0.8618
544.0,0.8612
545.0,0.8601
546.0,0.8588
547.0,0.8575
548.0,0.8562
549.0,0.855
550.0,0.8537
551.0,0.8524
552.0,0.8508
553.0,0.8482
554.0,0.8456
555.0,0.843
556.0,0.8404
557.0,0.8378
558.0,0.8353
559.0,0.8323
560.0,0.8283
561.0,0.8243
562.0,0.8202
563.0,0.8161
564.0,0.8118
565.0,0.8075
566.0,0.803
567.0,0.7985
568.0,0.794
569.0,0.7898
570.0,0.7855
571.0,0.7812
572.0,0.778
573.0,0.7755
574.0,0.7732
575.0,0.7715
576.0,0.7715
577.0,0.7715
578.0,0.7519
579.0,0.7318
580.0,0.7115
581.0,0.6928
582.0,0.6919
583.0,0.719
584.0,0.7404
585.0,0.7618
586.0,0.7834
587.0,0.8049
588.0,0.8245
589.0,0.8247
590.0,0.8264
591.0,0.2364
592.0,0.2322
593.0,0.4527
594.0,0.7401
595.0,0.7654
596.0,0.7578
597.0,0.7487
598.0,0.7394
599.0,0.7299
600.0,0.7257
601.0,0.7232
602.0,0.7232
603.0,0.7232
604.0,0.7243
605.0,0.7245
606.0,0.7278
607.0,0.7361
608.0,0.7443
609.0,0.7525
610.0,0.7608
611.0,0.7691
612.0,0.7772
613.0,0.7856
614.0,0.7938
615.0,0.8021
616.0,0.8103
617.0,0.8185
618.0,0.8268
619.0,0.8337
620.0,0.8397
621.0,0.8445
622.0,0.8485
623.0,0.8525
624.0,0.8558
625.0,0.8584
626.0,0.861
627.0,0.8635
628.0,0.8657
629.0,0.8675
630.0,0.8695
631.0,0.8714
632.0,0.8732
633.0,0.8743
634.0,0.8754
635.0,0.8765
636.0,0.8774
637.0,0.8778
638.0,0.8782
639.0,0.8786
640.0,0.8789
641.0,0.8791
642.0,0.8793
643.0,0.8793
644.0,0.8793
645.0,0.8793
646.0,0.8793
647.0,0.8793
648.0,0.8793
649.0,0.8792
650.0,0.8791
651.0,0.8791
652.0,0.879
653.0,0.8789
654.0,0.8788
655.0,0.8787
656.0,0.8786
657.0,0.8785
658.0,0.8784
659.0,0.8783
660.0,0.8782
661.0,0.8782
662.0,0.8781
663.0,0.878
664.0,0.878
665.0,0.8778
666.0,0.8778
667.0,0.8778
668.0,0.8777
669.0,0.8775
670.0,0.8774
671.0,0.8773
672.0,0.8771
673.0,0.877
674.0,0.877
675.0,0.8771
676.0,0.8771
677.0,0.8773
678.0,0.8773
679.0,0.8773
680.0,0.8773
681.0,0.8771
682.0,0.8771
683.0,0.8771
684.0,0.877
685.0,0.877
686.0,0.8768
687.0,0.8767
688.0,0.8766
689.0,0.8765
690.0,0.8764
691.0,0.8763
692.0,0.8763
693.0,0.8767
694.0,0.8771
695.0,0.8777
696.0,0.8782
697.0,0.8787
698.0,0.8792
699.0,0.8795
700.0,0.8797
701.0,0.88
702.0,0.8802
703.0,0.8805
704.0,0.8806
705.0,0.8807
706.0,0.8808
707.0,0.8809
708.0,0.881
709.0,0.8811
710.0,0.8811
711.0,0.881
712.0,0.881
713.0,0.8809
714.0,0.8808
715.0,0.8807
716.0,0.8805
717.0,0.8804
718.0,0.8803
719.0,0.8802
720.0,0.8801
721.0,0.8801
722.0,0.8801
723.0,0.8801
724.0,0.8801
725.0,0.8801
726.0,0.8805
727.0,0.8808
728.0,0.8812
729.0,0.8815
730.0,0.8818
731.0,0.8821
732.0,0.8825
733.0,0.8828
734.0,0.8828
735.0,0.8828
736.0,0.8828
737.0,0.8828
738.0,0.8828
739.0,0.8828
740.0,0.8828
741.0,0.8828
742.0,0.8827
743.0,0.8827
744.0,0.8827
745.0,0.8825
746.0,0.8825
747.0,0.8825
748.0,0.8825
749.0,0.8825
750.0,0.8825
751.0,0.8827
752.0,0.8828
753.0,0.8831
754.0,0.8832
755.0,0.8834
756.0,0.8836
757.0,0.8839
758.0,0.8842
759.0,0.8845
760.0,0.8847
761.0,0.885
762.0,0.8853
763.0,0.8856
764.0,0.8859
765.0,0.8862
766.0,0.8862
767.0,0.8862
768.0,0.8862
769.0,0.8862
770.0,0.8861
771.0,0.8861
772.0,0.886
773.0,0.886
774.0,0.886
775.0,0.8859
776.0,0.8859
777.0,0.8858
778.0,0.8858
779.0,0.8844
780.0,0.8856
781.0,0.8856
782.0,0.8855
783.0,0.8855
784.0,0.8854
785.0,0.8853
786.0,0.8853
787.0,0.8852
788.0,0.8851
789.0,0.8848
790.0,0.8846
791.0,0.8843
792.0,0.8841
793.0,0.8838
794.0,0.8836
795.0,0.8834
796.0,0.8833
797.0,0.8831
798.0,0.8828
799.0,0.8828
800.0,0.8825
801.0,0.8824
802.0,0.8823
803.0,0.8821
804.0,0.882
805.0,0.8818
806.0,0.8818
807.0,0.8817
808.0,0.8816
809.0,0.8815
810.0,0.8814
811.0,0.8813
812.0,0.8812
813.0,0.8812
814.0,0.8811
815.0,0.8811
816.0,0.8811
817.0,0.8813
818.0,0.8816
819.0,0.8818
820.0,0.8821
821.0,0.8824
822.0,0.8827
823.0,0.8828
824.0,0.8831
825.0,0.8833
826.0,0.8835
827.0,0.8837
828.0,0.8839
829.0,0.8839
830.0,0.8839
831.0,0.8838
832.0,0.8836
833.0,0.8835
834.0,0.8834
835.0,0.8833
836.0,0.8833
837.0,0.8837
838.0,0.884
839.0,0.8843
840.0,0.8846
841.0,0.885
842.0,0.8853
843.0,0.8856
844.0,0.8859
845.0,0.8868
846.0,0.8877
847.0,0.8886
848.0,0.8896
849.0,0.8905
850.0,0.8915
851.0,0.8924
852.0,0.8935
853.0,0.8946
854.0,0.8956
855.0,0.896
856.0,0.8959
857.0,0.8958
858.0,0.8957
859.0,0.8956
860.0,0.8954
861.0,0.8951
862.0,0.8949
863.0,0.8947
864.0,0.8944
865.0,0.8942
866.0,0.8939
867.0,0.8937
868.0,0.8935
869.0,0.8933
870.0,0.8932
871.0,0.8931
872.0,0.8931
873.0,0.893
874.0,0.8928
875.0,0.8928
876.0,0.8928
877.0,0.8927
878.0,0.8925
879.0,0.8925
880.0,0.8925
881.0,0.8925
882.0,0.8924
883.0,0.8924
884.0,0.8924
885.0,0.8923
886.0,0.8923
887.0,0.8923
888.0,0.8921
889.0,0.8921
890.0,0.8921
891.0,0.8921
892.0,0.8923
893.0,0.8924
894.0,0.8925
895.0,0.8925
896.0,0.8925
897.0,0.8927
898.0,0.8928
899.0,0.8928
900.0,0.8928
901.0,0.8932
902.0,0.8935
903.0,0.8939
904.0,0.8942
905.0,0.8945
906.0,0.8949
907.0,0.8952
908.0,0.8955
909.0,0.8959
910.0,0.8962
911.0,0.8965
912.0,0.8968
913.0,0.8971
914.0,0.8975
915.0,0.8978
916.0,0.8982
917.0,0.8985
918.0,0.8988
919.0,0.8991
920.0,0.8994
921.0,0.8997
922.0,0.9
923.0,0.9003
924.0,0.9005
925.0,0.9008
926.0,0.9011
927.0,0.9014
928.0,0.9017
929.0,0.9018
930.0,0.9021
931.0,0.9021
932.0,0.9024
933.0,0.9025
934.0,0.9027
935.0,0.9028
936.0,0.903
937.0,0.9032
938.0,0.9032
939.0,0.9033
940.0,0.9033
941.0,0.9032
942.0,0.9032
943.0,0.9032
944.0,0.9031
945.0,0.9031
946.0,0.903
947.0,0.903
948.0,0.9028
949.0,0.9028
950.0,0.9028
951.0,0.9028
952.0,0.9028
953.0,0.9027
954.0,0.9027
955.0,0.9025
956.0,0.9025
957.0,0.9025
958.0,0.9025
959.0,0.9025
960.0,0.9025
961.0,0.9025
962.0,0.9025
963.0,0.9025
964.0,0.9025
965.0,0.9025
966.0,0.9024
967.0,0.9024
968.0,0.9023
969.0,0.9023
970.0,0.9021
971.0,0.9021
972.0,0.9021
973.0,0.902
974.0,0.9018
975.0,0.9018
976.0,0.9018
977.0,0.9017
978.0,0.9016
979.0,0.9015
980.0,0.9014
981.0,0.9012
982.0,0.9011
983.0,0.9009
984.0,0.9008
985.0,0.9006
986.0,0.9004
987.0,0.9003
988.0,0.9002
989.0,0.9001
990.0,0.9
991.0,0.8999
992.0,0.8998
993.0,0.8997
994.0,0.8996
995.0,0.8996
996.0,0.8998
997.0,0.9
998.0,0.9002
999.0,0.9004
1000.0,0.9005
1001.0,0.9008
1002.0,0.9011
1003.0,0.9014
1004.0,0.9018
1005.0,0.9021
1006.0,0.9025
1007.0,0.9025
1008.0,0.9025
1009.0,0.9025
1010.0,0.9025
1011.0,0.9027
1012.0,0.9035
1013.0,0.9043
1014.0,0.9051
1015.0,0.9061
1016.0,0.9083
1017.0,0.9105
1018.0,0.9127
1019.0,0.9147
1020.0,0.9167
1021.0,0.9186
1022.0,0.9206
1023.0,0.9225
1024.0,0.9238
1025.0,0.9244
1026.0,0.925
1027.0,0.9251
1028.0,0.9251
1029.0,0.925
1030.0,0.9246
1031.0,0.9243
1032.0,0.924
1033.0,0.9237
1034.0,0.9234
1035.0,0.923
1036.0,0.9227
1037.0,0.9224
1038.0,0.9223
1039.0,0.9221
1040.0,0.9221
1041.0,0.922
1042.0,0.922
1043.0,0.9217
1044.0,0.9214
1045.0,0.921
1046.0,0.92
1047.0,0.919
1048.0,0.918
1049.0,0.9171
1050.0,0.9165
1051.0,0.9157
1052.0,0.915
1053.0,0.9142
1054.0,0.9136
1055.0,0.9132
1056.0,0.9128
1057.0,0.9124
1058.0,0.912
1059.0,0.9115
1060.0,0.9111
1061.0,0.9107
1062.0,0.9103
1063.0,0.9099
1064.0,0.9095
1065.0,0.909
1066.0,0.9089
1067.0,0.9089
1068.0,0.9089
1069.0,0.909
1070.0,0.909
1071.0,0.9091
1072.0,0.9091
1073.0,0.9092
1074.0,0.9092
1075.0,0.9093
1076.0,0.9094
1077.0,0.9094
1078.0,0.9095
1079.0,0.9096
1080.0,0.9097
1081.0,0.9098
1082.0,0.9098
1083.0,0.9099
1084.0,0.91
1085.0,0.9101
1086.0,0.9103
1087.0,0.9105
1088.0,0.9106
1089.0,0.9108
1090.0,0.9109
1091.0,0.9111
1092.0,0.9113
1093.0,0.9114
1094.0,0.9116
1095.0,0.9117
1096.0,0.9118
1097.0,0.9117
1098.0,0.9116
1099.0,0.9115
1100.0,0.9114
1101.0,0.9112
1102.0,0.911
1103.0,0.9108
1104.0,0.9105
1105.0,0.91
1106.0,0.9092
1107.0,0.9083
1108.0,0.9075
1109.0,0.9067
1110.0,0.9059
1111.0,0.9051
1112.0,0.9042
1113.0,0.9034
1114.0,0.9027
1115.0,0.9018
1116.0,0.9012
1117.0,0.9004
1118.0,0.8997
1119.0,0.8989
1120.0,0.8982
1121.0,0.8974
1122.0,0.8967
1123.0,0.8957
1124.0,0.8943
1125.0,0.8928
1126.0,0.8914
1127.0,0.8899
1128.0,0.8883
1129.0,0.886
1130.0,0.8837
1131.0,0.8814
1132.0,0.8791
1133.0,0.8768
1134.0,0.8746
1135.0,0.8715
1136.0,0.8682
1137.0,0.8648
1138.0,0.8615
1139.0,0.8582
1140.0,0.8549
1141.0,0.8516
1142.0,0.8486
1143.0,0.8456
1144.0,0.8427
1145.0,0.8397
1146.0,0.8367
1147.0,0.8337
1148.0,0.8308
1149.0,0.8288
1150.0,0.8268
1151.0,0.8256
1152.0,0.8256
1153.0,0.8255
1154.0,0.8235
1155.0,0.8278
1156.0,0.8292
1157.0,0.8308
1158.0,0.8323
1159.0,0.8349
1160.0,0.8375
1161.0,0.8403
1162.0,0.8442
1163.0,0.8496
1164.0,0.8595
1165.0,0.8712
1166.0,0.8738
1167.0,0.8737
1168.0,0.8737
1169.0,0.8733
1170.0,0.8716
1171.0,0.8658
1172.0,0.8613
1173.0,0.8524
1174.0,0.8468
1175.0,0.8418
1176.0,0.8378
1177.0,0.8338
1178.0,0.83
1179.0,0.8283
1180.0,0.8282
1181.0,0.8282
1182.0,0.8287
1183.0,0.8313
1184.0,0.8344
1185.0,0.8374
1186.0,0.8406
1187.0,0.8439
1188.0,0.8473
1189.0,0.8508
1190.0,0.8546
1191.0,0.8585
1192.0,0.8624
1193.0,0.8662
1194.0,0.8696
1195.0,0.8731
1196.0,0.8766
1197.0,0.8805
1198.0,0.8845
1199.0,0.888
1200.0,0.8904
1201.0,0.8927
1202.0,0.8933
1203.0,0.8938
1204.0,0.8944
1205.0,0.8949
1206.0,0.8956
1207.0,0.8986
1208.0,0.9032
1209.0,0.9067
1210.0,0.9084
1211.0,0.9091
1212.0,0.9093
1213.0,0.9093
1214.0,0.9089
1215.0,0.9085
1216.0,0.9078
1217.0,0.9077
1218.0,0.9063
1219.0,0.9054
1220.0,0.9045
1221.0,0.9034
1222.0,0.9023
1223.0,0.9006
1224.0,0.899
1225.0,0.8974
1226.0,0.896
1227.0,0.8946
1228.0,0.8928
1229.0,0.8904
1230.0,0.888
1231.0,0.8848
1232.0,0.8798
1233.0,0.8747
1234.0,0.8694
1235.0,0.864
1236.0,0.8574
1237.0,0.8499
1238.0,0.8424
1239.0,0.8349
1240.0,0.8249
1241.0,0.8148
1242.0,0.8046
1243.0,0.7926
1244.0,0.7805
1245.0,0.7693
1246.0,0.7525
1247.0,0.7295
1248.0,0.7065
1249.0,0.6836
1250.0,0.6606
1251.0,0.6377
1252.0,0.6147
1253.0,0.5917
1254.0,0.5671
1255.0,0.5387
1256.0,0.5208
1257.0,0.5018
1258.0,0.479
1259.0,0.4549
1260.0,0.4267
1261.0,0.4072
1262.0,0.3895
1263.0,0.3718
1264.0,0.353
1265.0,0.3344
1266.0,0.3162
1267.0,0.2982
1268.0,0.2832
1269.0,0.2713
1270.0,0.2593
1271.0,0.2479
1272.0,0.2399
1273.0,0.2323
1274.0,0.2268
1275.0,0.2247
1276.0,0.2228
1277.0,0.2254
1278.0,0.2265
1279.0,0.2284
1280.0,0.2316
1281.0,0.2363
1282.0,0.2448
1283.0,0.3706
1284.0,0.4608
1285.0,0.551
1286.0,0.5839
1287.0,0.5842
1288.0,0.5869
1289.0,0.5222
1290.0,0.4851
1291.0,0.4479
1292.0,0.4108
1293.0,0.3736
1294.0,0.3364
1295.0,0.2993
1296.0,0.2622
1297.0,0.225
1298.0,0.1879
1299.0,0.1716
1300.0,0.1659
1301.0,0.1652
1302.0,0.1653
1303.0,0.1654
1304.0,0.1666
1305.0,0.1683
1306.0,0.1731
1307.0,0.1783
1308.0,0.1845
1309.0,0.1946
1310.0,0.2233
1311.0,0.2532
1312.0,0.2811
1313.0,0.3202
1314.0,0.3956
1315.0,0.4293
1316.0,0.4675
1317.0,0.4958
1318.0,0.5394
1319.0,0.5873
1320.0,0.6352
1321.0,0.6831
1322.0,0.731
1323.0,0.7506
1324.0,0.7767
1325.0,0.799
1326.0,0.8134
1327.0,0.8241
1328.0,0.8335
1329.0,0.8428
1330.0,0.849
1331.0,0.8534
1332.0,0.8578
1333.0,0.8623
1334.0,0.865
1335.0,0.8673
1336.0,0.8695
1337.0,0.8717
1338.0,0.873
1339.0,0.8737
1340.0,0.8743
1341.0,0.8743
1342.0,0.8742
1343.0,0.8762
1344.0,0.8768
1345.0,0.8775
1346.0,0.8781
1347.0,0.8787
1348.0,0.8794
1349.0,0.8803
1350.0,0.8813
1351.0,0.8821
1352.0,0.8832
1353.0,0.884
1354.0,0.8847
1355.0,0.8855
1356.0,0.8855
1357.0,0.885
1358.0,0.8845
1359.0,0.8834
1360.0,0.8817
1361.0,0.8801
1362.0,0.8782
1363.0,0.8762
1364.0,0.8741
1365.0,0.8715
1366.0,0.8689
1367.0,0.865
1368.0,0.8611
1369.0,0.8573
1370.0,0.854
1371.0,0.8513
1372.0,0.8485
1373.0,0.8464
1374.0,0.8466
1375.0,0.8468
1376.0,0.847
1377.0,0.8471
1378.0,0.8473
1379.0,0.8475
1380.0,0.8477
1381.0,0.8478
1382.0,0.8481
1383.0,0.8483
1384.0,0.8486
1385.0,0.8492
1386.0,0.8497
1387.0,0.8503
1388.0,0.8508
1389.0,0.8513
1390.0,0.8518
1391.0,0.8518
1392.0,0.8518
1393.0,0.8518
1394.0,0.8517
1395.0,0.8516
1396.0,0.8514
1397.0,0.8513
1398.0,0.8512
1399.0,0.851
1400.0,0.8509
1401.0,0.8507
1402.0,0.8506
1403.0,0.8505
1404.0,0.8504
1405.0,0.8503
1406.0,0.8502
1407.0,0.8501
1408.0,0.85
1409.0,0.8499
1410.0,0.8497
1411.0,0.8496
1412.0,0.8495
1413.0,0.8495
1414.0,0.8495
1415.0,0.8494
1416.0,0.8494
1417.0,0.8494
1418.0,0.8494
1419.0,0.8494
1420.0,0.8493
1421.0,0.8493
1422.0,0.8493
1423.0,0.8493
1424.0,0.8492
1425.0,0.8492
1426.0,0.8492
1427.0,0.8492
1428.0,0.8492
1429.0,0.8493
1430.0,0.8493
1431.0,0.8495
1432.0,0.8497
1433.0,0.8499
1434.0,0.8501
1435.0,0.8502
1436.0,0.8504
1437.0,0.8506
1438.0,0.8507
1439.0,0.8509
1440.0,0.8511
1441.0,0.8512
1442.0,0.8514
1443.0,0.8515
1444.0,0.8517
1445.0,0.8518
1446.0,0.852
1447.0,0.8521
1448.0,0.8523
1449.0,0.8524
1450.0,0.8525
1451.0,0.8525
1452.0,0.8527
1453.0,0.8528
1454.0,0.8528
1455.0,0.853
1456.0,0.8531
1457.0,0.8532
1458.0,0.8533
1459.0,0.8534
1460.0,0.8534
1461.0,0.8534
1462.0,0.8534
1463.0,0.8534
1464.0,0.8534
1465.0,0.8534
1466.0,0.8534
1467.0,0.8534
1468.0,0.8534
1469.0,0.8534
1470.0,0.8534
1471.0,0.8534
1472.0,0.8534
1473.0,0.8534
1474.0,0.8533
1475.0,0.8531
1476.0,0.8528
1477.0,0.8528
1478.0,0.8525
1479.0,0.8524
1480.0,0.8521
1481.0,0.8521
1482.0,0.8518
1483.0,0.8517
1484.0,0.8515
1485.0,0.8514
1486.0,0.8512
1487.0,0.851
1488.0,0.8508
1489.0,0.8506
1490.0,0.8505
1491.0,0.8503
1492.0,0.8501
1493.0,0.8499
1494.0,0.8496
1495.0,0.8492
1496.0,0.8489
1497.0,0.8486
1498.0,0.8482
1499.0,0.8478
1500.0,0.8475
1501.0,0.8471
1502.0,0.8468
1503.0,0.8465
1504.0,0.8461
1505.0,0.8458
1506.0,0.8455
1507.0,0.845
1508.0,0.8444
1509.0,0.8439
1510.0,0.8433
1511.0,0.8428
1512.0,0.8421
1513.0,0.8416
1514.0,0.8411
1515.0,0.8405
1516.0,0.84
1517.0,0.8394
1518.0,0.8388
1519.0,0.8383
1520.0,0.8377
1521.0,0.8371
1522.0,0.8366
1523.0,0.836
1524.0,0.8351
1525.0,0.8342
1526.0,0.8333
1527.0,0.8324
1528.0,0.8314
1529.0,0.8305
1530.0,0.8295
1531.0,0.8285
1532.0,0.8275
1533.0,0.8266
1534.0,0.8257
1535.0,0.8247
1536.0,0.8238
1537.0,0.8228
1538.0,0.8218
1539.0,0.8209
1540.0,0.82
1541.0,0.8189
1542.0,0.8178
1543.0,0.8168
1544.0,0.8158
1545.0,0.8148
1546.0,0.8137
1547.0,0.8126
1548.0,0.8115
1549.0,0.8106
1550.0,0.8096
1551.0,0.8085
1552.0,0.8075
1553.0,0.8065
1554.0,0.806
1555.0,0.8054
1556.0,0.8048
1557.0,0.8042
1558.0,0.8037
1559.0,0.8037
1560.0,0.8039
1561.0,0.804
1562.0,0.8041
1563.0,0.8042
1564.0,0.8043
1565.0,0.8049
1566.0,0.8061
1567.0,0.8071
1568.0,0.8083
1569.0,0.8094
1570.0,0.811
1571.0,0.8125
1572.0,0.8141
1573.0,0.8156
1574.0,0.8171
1575.0,0.8187
1576.0,0.8203
1577.0,0.8218
1578.0,0.8234
1579.0,0.8251
1580.0,0.8268
1581.0,0.8284
1582.0,0.8301
1583.0,0.8318
1584.0,0.8335
1585.0,0.8351
1586.0,0.8366
1587.0,0.8382
1588.0,0.8397
1589.0,0.8413
1590.0,0.8428
1591.0,0.8444
1592.0,0.846
1593.0,0.8475
1594.0,0.8474
1595.0,0.8471
1596.0,0.8468
1597.0,0.8467
1598.0,0.8464
1599.0,0.8462
1600.0,0.8459
1601.0,0.8457
1602.0,0.8454
1603.0,0.8449
1604.0,0.8441
1605.0,0.8434
1606.0,0.8427
1607.0,0.8418
1608.0,0.8412
1609.0,0.8404
1610.0,0.8397
1611.0,0.8387
1612.0,0.8371
1613.0,0.8354
1614.0,0.8337
1615.0,0.8321
1616.0,0.8304
1617.0,0.8287
1618.0,0.827
1619.0,0.8249
1620.0,0.8218
1621.0,0.8189
1622.0,0.816
1623.0,0.813
1624.0,0.81
1625.0,0.8071
1626.0,0.8042
1627.0,0.8019
1628.0,0.7998
1629.0,0.7975
1630.0,0.7953
1631.0,0.7931
1632.0,0.7908
1633.0,0.7887
1634.0,0.7865
1635.0,0.7843
1636.0,0.7819
1637.0,0.7798
1638.0,0.778
1639.0,0.7765
1640.0,0.7749
1641.0,0.7734
1642.0,0.7718
1643.0,0.7703
1644.0,0.7687
1645.0,0.7669
1646.0,0.7653
1647.0,0.7635
1648.0,0.7618
1649.0,0.76
1650.0,0.7591
1651.0,0.7587
1652.0,0.7587
1653.0,0.7593
1654.0,0.7599
1655.0,0.7604
1656.0,0.761
1657.0,0.7615
1658.0,0.7628
1659.0,0.7646
1660.0,0.7664
1661.0,0.7683
1662.0,0.7701
1663.0,0.7725
1664.0,0.776
1665.0,0.7795
1666.0,0.783
1667.0,0.7865
1668.0,0.7899
1669.0,0.793
1670.0,0.7961
1671.0,0.7991
1672.0,0.8021
1673.0,0.8051
1674.0,0.8083
1675.0,0.8114
1676.0,0.8142
1677.0,0.8168
1678.0,0.8194
1679.0,0.822
1680.0,0.8247
1681.0,0.8273
1682.0,0.8299
1683.0,0.8325
1684.0,0.8355
1685.0,0.8387
1686.0,0.8418
1687.0,0.8451
1688.0,0.8483
1689.0,0.8516
1690.0,0.8552
1691.0,0.859
1692.0,0.8627
1693.0,0.8665
1694.0,0.8685
1695.0,0.8691
1696.0,0.8697
1697.0,0.8703
1698.0,0.8709
1699.0,0.8708
1700.0,0.8707
1701.0,0.8707
1702.0,0.8706
1703.0,0.8705
1704.0,0.8705
1705.0,0.8705
1706.0,0.8706
1707.0,0.8707
1708.0,0.8708
1709.0,0.8708
1710.0,0.8707
1711.0,0.87
1712.0,0.8694
1713.0,0.8687
1714.0,0.868
1715.0,0.8674
1716.0,0.8667
1717.0,0.8665
1718.0,0.8664
1719.0,0.8663
1720.0,0.8685
1721.0,0.873
1722.0,0.8754
1723.0,0.8758
1724.0,0.8763
1725.0,0.8764
1726.0,0.8764
1727.0,0.8761
1728.0,0.8751
1729.0,0.8742
1730.0,0.8732
1731.0,0.8723
1732.0,0.8713
1733.0,0.8704
1734.0,0.8694
1735.0,0.8685
1736.0,0.8675
1737.0,0.8666
1738.0,0.8657
1739.0,0.8658
1740.0,0.8659
1741.0,0.8678
1742.0,0.8694
1743.0,0.8701
1744.0,0.8705
1745.0,0.8705
1746.0,0.8702
1747.0,0.8681
1748.0,0.8651
1749.0,0.8621
1750.0,0.8591
1751.0,0.8557
1752.0,0.8595
1753.0,0.865
1754.0,0.8705
1755.0,0.8721
1756.0,0.8728
1757.0,0.8735
1758.0,0.874
1759.0,0.8744
1760.0,0.8745
1761.0,0.8747
1762.0,0.875
1763.0,0.8755
1764.0,0.876
1765.0,0.8768
1766.0,0.8751
1767.0,0.8713
1768.0,0.8675
1769.0,0.8636
1770.0,0.8591
1771.0,0.8547
1772.0,0.8767
1773.0,0.8764
1774.0,0.876
1775.0,0.8757
1776.0,0.8754
1777.0,0.8751
1778.0,0.8748
1779.0,0.8745
1780.0,0.8746
1781.0,0.8752
1782.0,0.8757
1783.0,0.8762
1784.0,0.8771
1785.0,0.8786
1786.0,0.8802
1787.0,0.8774
1788.0,0.873
1789.0,0.8687
1790.0,0.8628
1791.0,0.8652
1792.0,0.8687
1793.0,0.8715
1794.0,0.8742
1795.0,0.8751
1796.0,0.875
1797.0,0.875
1798.0,0.875
1799.0,0.8755
1800.0,0.8768
1801.0,0.8781
1802.0,0.8782
1803.0,0.8777
1804.0,0.8771
1805.0,0.8773
1806.0,0.8774
1807.0,0.8775
1808.0,0.8778
1809.0,0.878
1810.0,0.8782
1811.0,0.8782
1812.0,0.878
1813.0,0.8778
1814.0,0.8778
1815.0,0.8778
1816.0,0.8778
1817.0,0.8778
1818.0,0.8777
1819.0,0.8771
1820.0,0.8765
1821.0,0.8756
1822.0,0.8747
1823.0,0.8738
1824.0,0.8725
1825.0,0.871
1826.0,0.8692
1827.0,0.8691
1828.0,0.8704
1829.0,0.8717
1830.0,0.873
1831.0,0.874
1832.0,0.8751
1833.0,0.876
1834.0,0.8767
1835.0,0.8775
1836.0,0.8783
1837.0,0.8791
1838.0,0.8771
1839.0,0.871
1840.0,0.8627
1841.0,0.8571
1842.0,0.8574
1843.0,0.8618
1844.0,0.8661
1845.0,0.8705
1846.0,0.8739
1847.0,0.8747
1848.0,0.8746
1849.0,0.8745
1850.0,0.8744
1851.0,0.8744
1852.0,0.8744
1853.0,0.8742
1854.0,0.874
1855.0,0.8737
1856.0,0.8734
1857.0,0.8728
1858.0,0.8724
1859.0,0.8717
1860.0,0.8707
1861.0,0.8698
1862.0,0.8689
1863.0,0.8677
1864.0,0.8664
1865.0,0.8656
1866.0,0.865
1867.0,0.8645
1868.0,0.8646
1869.0,0.8664
1870.0,0.8715
1871.0,0.8738
1872.0,0.8748
1873.0,0.8746
1874.0,0.8745
1875.0,0.8742
1876.0,0.8738
1877.0,0.8655
1878.0,0.85
1879.0,0.8387
1880.0,0.8437
1881.0,0.851
1882.0,0.8582
1883.0,0.8655
1884.0,0.8694
1885.0,0.87
1886.0,0.8705
1887.0,0.871
1888.0,0.8715
1889.0,0.872
1890.0,0.8725
1891.0,0.8731
1892.0,0.8736
1893.0,0.874
1894.0,0.8745
1895.0,0.8748
1896.0,0.8752
1897.0,0.8753
1898.0,0.8754
1899.0,0.8756
1900.0,0.8756
1901.0,0.8756
1902.0,0.8756
1903.0,0.8757
1904.0,0.8759
1905.0,0.876
1906.0,0.8761
1907.0,0.8762
1908.0,0.8762
1909.0,0.8763
1910.0,0.8757
1911.0,0.8748
1912.0,0.8737
1913.0,0.8727
1914.0,0.8731
1915.0,0.8736
1916.0,0.8741
1917.0,0.8746
1918.0,0.8755
1919.0,0.8765
1920.0,0.8775
1921.0,0.8778
1922.0,0.8783
1923.0,0.8787
1924.0,0.8786
1925.0,0.8785
1926.0,0.8784
1927.0,0.8782
1928.0,0.8778
1929.0,0.8775
1930.0,0.8773
1931.0,0.877
1932.0,0.8766
1933.0,0.876
1934.0,0.8754
1935.0,0.8749
1936.0,0.8743
1937.0,0.8737
1938.0,0.8731
1939.0,0.8725
1940.0,0.8734
1941.0,0.8749
1942.0,0.8763
1943.0,0.8775
1944.0,0.8782
1945.0,0.8788
1946.0,0.8768
1947.0,0.8795
1948.0,0.8795
1949.0,0.8795
1950.0,0.8795
1951.0,0.8793
1952.0,0.8792
1953.0,0.8791
1954.0,0.8789
1955.0,0.8786
1956.0,0.8782
1957.0,0.8778
1958.0,0.8775
1959.0,0.8771
1960.0,0.8767
1961.0,0.8763
1962.0,0.876
1963.0,0.8756
1964.0,0.8755
1965.0,0.8756
1966.0,0.8756
1967.0,0.8758
1968.0,0.8759
1969.0,0.8761
1970.0,0.8763
1971.0,0.8765
1972.0,0.8767
1973.0,0.8768
1974.0,0.8771
1975.0,0.8773
1976.0,0.8775
1977.0,0.8775
1978.0,0.8775
1979.0,0.8777
1980.0,0.8777
1981.0,0.8778
1982.0,0.8778
1983.0,0.8778
1984.0,0.8778
1985.0,0.878
1986.0,0.8781
1987.0,0.8782
1988.0,0.8783
1989.0,0.8784
1990.0,0.8785
1991.0,0.8786
1992.0,0.8788
1993.0,0.8789
1994.0,0.879
1995.0,0.8792
1996.0,0.8793
1997.0,0.8793
1998.0,0.8793
1999.0,0.8793
2000.0,0.8792
2001.0,0.877
2002.0,0.8749
2003.0,0.875
2004.0,0.8751
2005.0,0.8758
2006.0,0.8766
2007.0,0.8778
2008.0,0.879
2009.0,0.88
2010.0,0.881
2011.0,0.8812
2012.0,0.8814
2013.0,0.8814
2014.0,0.8814
2015.0,0.8814
2016.0,0.8815
2017.0,0.8817
2018.0,0.8818
2019.0,0.8821
2020.0,0.8823
2021.0,0.8824
2022.0,0.8825
2023.0,0.8827
2024.0,0.8828
2025.0,0.8828
2026.0,0.883
2027.0,0.8831
2028.0,0.8832
2029.0,0.8833
2030.0,0.8834
2031.0,0.8834
2032.0,0.8834
2033.0,0.8834
2034.0,0.8834
2035.0,0.8834
2036.0,0.8834
2037.0,0.8834
2038.0,0.8834
2039.0,0.8834
2040.0,0.8834
2041.0,0.8833
2042.0,0.8833
2043.0,0.8832
2044.0,0.8831
2045.0,0.883
2046.0,0.883
2047.0,0.8828
2048.0,0.8828
2049.0,0.8827
2050.0,0.8827
2051.0,0.8825
2052.0,0.8824
2053.0,0.8821
2054.0,0.8821
2055.0,0.882
2056.0,0.8818
2057.0,0.8817
2058.0,0.8816
2059.0,0.8814
2060.0,0.8813
2061.0,0.8811
2062.0,0.881
2063.0,0.8808
2064.0,0.8807
2065.0,0.8805
2066.0,0.8804
2067.0,0.8802
2068.0,0.8801
2069.0,0.88
2070.0,0.8799
2071.0,0.8797
2072.0,0.8796
2073.0,0.8794
2074.0,0.8793
2075.0,0.8791
2076.0,0.879
2077.0,0.8788
2078.0,0.8787
2079.0,0.8785
2080.0,0.8784
2081.0,0.8783
2082.0,0.8782
2083.0,0.878
2084.0,0.8778
2085.0,0.8778
2086.0,0.8777
2087.0,0.8775
2088.0,0.8775
2089.0,0.8774
2090.0,0.8774
2091.0,0.8773
2092.0,0.8771
2093.0,0.8771
2094.0,0.877
2095.0,0.8768
2096.0,0.8768
2097.0,0.8767
2098.0,0.8767
2099.0,0.8766
2100.0,0.8765
2101.0,0.8764
2102.0,0.8764
2103.0,0.8763
2104.0,0.8763
2105.0,0.8763
2106.0,0.8763
2107.0,0.8762
2108.0,0.8762
2109.0,0.8762
2110.0,0.8762
2111.0,0.8761
2112.0,0.8761
2113.0,0.8761
2114.0,0.8761
2115.0,0.8759
2116.0,0.8757
2117.0,0.8754
2118.0,0.8751
2119.0,0.8748
2120.0,0.8746
2121.0,0.8743
2122.0,0.874
2123.0,0.8737
2124.0,0.8734
2125.0,0.8728
2126.0,0.8725
2127.0,0.8718
2128.0,0.8714
2129.0,0.8709
2130.0,0.8704
2131.0,0.8698
2132.0,0.8692
2133.0,0.8684
2134.0,0.8675
2135.0,0.8668
2136.0,0.8661
2137.0,0.8649
2138.0,0.8638
2139.0,0.8624
2140.0,0.861
2141.0,0.8591
2142.0,0.8571
2143.0,0.855
2144.0,0.8528
2145.0,0.8503
2146.0,0.8478
2147.0,0.845
2148.0,0.8421
2149.0,0.8378
2150.0,0.8334
2151.0,0.8274
2152.0,0.8215
2153.0,0.8158
2154.0,0.8101
2155.0,0.8046
2156.0,0.7991
2157.0,0.7939
2158.0,0.7888
2159.0,0.7836
2160.0,0.7785
2161.0,0.7691
2162.0,0.7598
2163.0,0.7478
2164.0,0.7361
2165.0,0.7238
2166.0,0.7115
2167.0,0.6942
2168.0,0.6768
2169.0,0.6312
2170.0,0.5855
2171.0,0.5609
2172.0,0.5362
2173.0,0.5117
2174.0,0.4872
2175.0,0.4626
2176.0,0.4381
2177.0,0.4206
2178.0,0.4032
2179.0,0.4
2180.0,0.397
2181.0,0.3855
2182.0,0.374
2183.0,0.3252
2184.0,0.2764
2185.0,0.2298
2186.0,0.1833
2187.0,0.1687
2188.0,0.1542
2189.0,0.148
2190.0,0.1417
2191.0,0.1392
2192.0,0.1368
2193.0,0.1351
2194.0,0.1334
2195.0,0.1102
2196.0,0.0871
2197.0,0.0762
2198.0,0.0654
2199.0,0.0523
2200.0,0.0393
2201.0,0.0352
2202.0,0.0311
2203.0,0.0284
2204.0,0.0257
2205.0,0.0232
2206.0,0.0208
2207.0,0.0189
2208.0,0.017
2209.0,0.0162
2210.0,0.0154
2211.0,0.0153
2212.0,0.0153
2213.0,0.0152
2214.0,0.0152
2215.0,0.0153
2216.0,0.0155
2217.0,0.016
2218.0,0.0165
2219.0,0.033
2220.0,0.0495
2221.0,0.0926
2222.0,0.136
2223.0,0.1363
2224.0,0.1366
2225.0,0.1155
2226.0,0.1378
2227.0,0.0677
2228.0,0.0409
2229.0,0.0264
2230.0,0.012
2231.0,0.0102
2232.0,0.0084
2233.0,0.0083
2234.0,0.0083
2235.0,0.0086
2236.0,0.009
2237.0,0.0093
2238.0,0.0097
2239.0,0.01
2240.0,0.0081
2241.0,0.0108
2242.0,0.0113
2243.0,0.012
2244.0,0.0127
2245.0,0.0142
2246.0,0.0157
2247.0,0.0221
2248.0,0.0286
2249.0,0.0575
2250.0,0.0864
2251.0,0.1445
2252.0,0.2027
2253.0,0.2609
2254.0,0.3191
2255.0,0.3772
2256.0,0.4354
2257.0,0.4936
2258.0,0.5518
2259.0,0.6099
2260.0,0.6681
2261.0,0.7262
2262.0,0.7845
2263.0,0.8253
2264.0,0.8661
2265.0,0.8711
2266.0,0.8761
2267.0,0.8782
2268.0,0.8804
2269.0,0.881
2270.0,0.8817
2271.0,0.882
2272.0,0.8823
2273.0,0.8823
2274.0,0.8824
2275.0,0.8824
2276.0,0.8825
2277.0,0.8825
2278.0,0.8825
2279.0,0.8825
2280.0,0.8825
2281.0,0.8825
2282.0,0.8825
2283.0,0.8823
2284.0,0.8821
2285.0,0.8818
2286.0,0.8816
2287.0,0.8813
2288.0,0.881
2289.0,0.8807
2290.0,0.8805
2291.0,0.8802
2292.0,0.8799
2293.0,0.8795
2294.0,0.8792
2295.0,0.8788
2296.0,0.8784
2297.0,0.878
2298.0,0.8775
2299.0,0.8771
2300.0,0.8768
2301.0,0.8764
2302.0,0.876
2303.0,0.8756
2304.0,0.8753
2305.0,0.8751
2306.0,0.8751
2307.0,0.8752
2308.0,0.8754
2309.0,0.8757
2310.0,0.8761
2311.0,0.8763
2312.0,0.8765
2313.0,0.8765
2314.0,0.8765
2315.0,0.8764
2316.0,0.8763
2317.0,0.8761
2318.0,0.876
2319.0,0.8758
2320.0,0.8757
2321.0,0.8751
2322.0,0.8745
2323.0,0.8739
2324.0,0.8733
2325.0,0.8728
2326.0,0.8725
2327.0,0.8724
2328.0,0.8721
2329.0,0.872
2330.0,0.8718
2331.0,0.8718
2332.0,0.872
2333.0,0.872
2334.0,0.8721
2335.0,0.8721
2336.0,0.8723
2337.0,0.8725
2338.0,0.8757
2339.0,0.8731
2340.0,0.8734
2341.0,0.8738
2342.0,0.8742
2343.0,0.8748
2344.0,0.8754
2345.0,0.876
2346.0,0.8767
2347.0,0.8771
2348.0,0.8778
2349.0,0.8782
2350.0,0.8787
2351.0,0.8792
2352.0,0.8797
2353.0,0.8801
2354.0,0.8806
2355.0,0.881
2356.0,0.8814
2357.0,0.8817
2358.0,0.8821
2359.0,0.8825
2360.0,0.8828
2361.0,0.8832
2362.0,0.8836
2363.0,0.8839
2364.0,0.8842
2365.0,0.8844
2366.0,0.8847
2367.0,0.885
2368.0,0.8853
2369.0,0.8855
2370.0,0.8857
2371.0,0.8857
2372.0,0.8857
2373.0,0.8856
2374.0,0.8856
2375.0,0.8855
2376.0,0.8855
2377.0,0.8855
2378.0,0.8855
2379.0,0.8854
2380.0,0.8854
2381.0,0.8854
2382.0,0.8854
2383.0,0.8852
2384.0,0.8851
2385.0,0.8849
2386.0,0.8848
2387.0,0.8846
2388.0,0.8845
2389.0,0.8843
2390.0,0.8842
2391.0,0.884
2392.0,0.8839
2393.0,0.8837
2394.0,0.8835
2395.0,0.8831
2396.0,0.8828
2397.0,0.8825
2398.0,0.8821
2399.0,0.8818
2400.0,0.8816
2401.0,0.8813
2402.0,0.881
2403.0,0.8807
2404.0,0.8804
2405.0,0.8796
2406.0,0.8788
2407.0,0.8778
2408.0,0.8771
2409.0,0.8763
2410.0,0.8755
2411.0,0.8747
2412.0,0.8739
2413.0,0.8728
2414.0,0.872
2415.0,0.8709
2416.0,0.8699
2417.0,0.8688
2418.0,0.8678
2419.0,0.8667
2420.0,0.8657
2421.0,0.8646
2422.0,0.8636
2423.0,0.8621
2424.0,0.8608
2425.0,0.8593
2426.0,0.8578
2427.0,0.8563
2428.0,0.8548
2429.0,0.8528
2430.0,0.8509
2431.0,0.8486
2432.0,0.8464
2433.0,0.8441
2434.0,0.8418
2435.0,0.839
2436.0,0.8362
2437.0,0.8328
2438.0,0.8296
2439.0,0.8271
2440.0,0.8246
2441.0,0.8227
2442.0,0.8209
2443.0,0.8205
2444.0,0.8205
2445.0,0.8205
2446.0,0.8209
2447.0,0.8214
2448.0,0.8218
2449.0,0.8242
2450.0,0.8265
2451.0,0.8348
2452.0,0.8431
2453.0,0.8538
2454.0,0.8645
2455.0,0.8645
2456.0,0.8645
2457.0,0.8645
2458.0,0.8645
2459.0,0.8599
2460.0,0.8554
2461.0,0.8508
2462.0,0.8463
2463.0,0.8417
2464.0,0.8371
2465.0,0.8325
2466.0,0.8281
2467.0,0.8236
2468.0,0.8191
2469.0,0.8168
2470.0,0.8146
2471.0,0.8138
2472.0,0.8131
2473.0,0.8128
2474.0,0.8128
2475.0,0.8126
2476.0,0.8115
2477.0,0.8139
2478.0,0.815
2479.0,0.8183
2480.0,0.8217
2481.0,0.8288
2482.0,0.8359
2483.0,0.8404
2484.0,0.845
2485.0,0.8494
2486.0,0.8538
2487.0,0.858
2488.0,0.8623
2489.0,0.8656
2490.0,0.8689
2491.0,0.8718
2492.0,0.8747
2493.0,0.8764
2494.0,0.8782
2495.0,0.8782
2496.0,0.8782
2497.0,0.8782
2498.0,0.8782
2499.0,0.8781
2500.0,0.878
2501.0,0.8778
2502.0,0.8804
2503.0,0.8775
2504.0,0.8773
2505.0,0.8768
2506.0,0.8764
2507.0,0.8758
2508.0,0.8752
2509.0,0.8745
2510.0,0.8738
2511.0,0.8727
2512.0,0.8716
2513.0,0.8699
2514.0,0.8682
2515.0,0.8639
2516.0,0.8597
2517.0,0.856
2518.0,0.8523
2519.0,0.8484
2520.0,0.8446
2521.0,0.8407
2522.0,0.8368
2523.0,0.8333
2524.0,0.8298
2525.0,0.8237
2526.0,0.8175
2527.0,0.8091
2528.0,0.8007
2529.0,0.7921
2530.0,0.7837
2531.0,0.7751
2532.0,0.7668
2533.0,0.7583
2534.0,0.7499
2535.0,0.7414
2536.0,0.7328
2537.0,0.7244
2538.0,0.716
2539.0,0.7087
2540.0,0.7015
2541.0,0.696
2542.0,0.6905
2543.0,0.6882
2544.0,0.6858
2545.0,0.6855
2546.0,0.6855
2547.0,0.6855
2548.0,0.6856
2549.0,0.6865
2550.0,0.6874
2551.0,0.6892
2552.0,0.691
2553.0,0.6941
2554.0,0.6971
2555.0,0.7034
2556.0,0.7097
2557.0,0.7187
2558.0,0.7278
2559.0,0.7758
2560.0,0.824
2561.0,0.8241
2562.0,0.8243
2563.0,0.8094
2564.0,0.8271
2565.0,0.7708
2566.0,0.7474
2567.0,0.7238
2568.0,0.7003
2569.0,0.6767
2570.0,0.6532
2571.0,0.6386
2572.0,0.6241
2573.0,0.6243
2574.0,0.6246
2575.0,0.6249
2576.0,0.6229
2577.0,0.6256
2578.0,0.626
2579.0,0.6282
2580.0,0.6304
2581.0,0.6425
2582.0,0.6549
2583.0,0.6678
2584.0,0.681
2585.0,0.694
2586.0,0.7071
2587.0,0.7201
2588.0,0.7333
2589.0,0.7462
2590.0,0.7594
2591.0,0.7725
2592.0,0.7856
2593.0,0.7986
2594.0,0.8117
2595.0,0.8247
2596.0,0.8378
2597.0,0.845
2598.0,0.8521
2599.0,0.857
2600.0,0.8618
2601.0,0.8648
2602.0,0.8677
2603.0,0.87
2604.0,0.8723
2605.0,0.8739
2606.0,0.8756
2607.0,0.8768
2608.0,0.878
2609.0,0.8787
2610.0,0.8794
2611.0,0.8799
2612.0,0.8804
2613.0,0.8808
2614.0,0.8812
2615.0,0.8815
2616.0,0.8818
2617.0,0.8821
2618.0,0.8825
2619.0,0.8827
2620.0,0.883
2621.0,0.8832
2622.0,0.8835
2623.0,0.8837
2624.0,0.8838
2625.0,0.8839
2626.0,0.884
2627.0,0.884
2628.0,0.8841
2629.0,0.8841
2630.0,0.8842
2631.0,0.8842
2632.0,0.8843
2633.0,0.8843
2634.0,0.8843
2635.0,0.8843
2636.0,0.8844
2637.0,0.8844
2638.0,0.8845
2639.0,0.8845
2640.0,0.8845
2641.0,0.8845
2642.0,0.8846
2643.0,0.8846
2644.0,0.8847
2645.0,0.8847
2646.0,0.8848
2647.0,0.8848
2648.0,0.8849
2649.0,0.8849
2650.0,0.885
2651.0,0.885
2652.0,0.885
2653.0,0.885
2654.0,0.8851
2655.0,0.8851
2656.0,0.8852
2657.0,0.8852
2658.0,0.8853
2659.0,0.8853
2660.0,0.8854
2661.0,0.8854
2662.0,0.8855
2663.0,0.8855
2664.0,0.8855
2665.0,0.8855
2666.0,0.8855
2667.0,0.8855
2668.0,0.8856
2669.0,0.8856
2670.0,0.8856
2671.0,0.8856
2672.0,0.8857
2673.0,0.8857
2674.0,0.8857
2675.0,0.8857
2676.0,0.8858
2677.0,0.8858
2678.0,0.8858
2679.0,0.8858
2680.0,0.8858
2681.0,0.8857
2682.0,0.8857
2683.0,0.8856
2684.0,0.8856
2685.0,0.8856
2686.0,0.8856
2687.0,0.8855
2688.0,0.8855
2689.0,0.8854
2690.0,0.8854
2691.0,0.8854
2692.0,0.8854
2693.0,0.8853
2694.0,0.8853
2695.0,0.8853
2696.0,0.8853
2697.0,0.8852
2698.0,0.8852
2699.0,0.8851
2700.0,0.8851
2701.0,0.8851
2702.0,0.8851
2703.0,0.885
2704.0,0.885
2705.0,0.8848
2706.0,0.8847
2707.0,0.8846
2708.0,0.8845
2709.0,0.8843
2710.0,0.8842
2711.0,0.8841
2712.0,0.884
2713.0,0.8839
2714.0,0.8838
2715.0,0.8836
2716.0,0.8835
2717.0,0.8834
2718.0,0.8833
2719.0,0.8831
2720.0,0.883
2721.0,0.8828
2722.0,0.8828
2723.0,0.8825
2724.0,0.8825
2725.0,0.8823
2726.0,0.8821
2727.0,0.882
2728.0,0.8818
2729.0,0.8818
2730.0,0.8817
2731.0,0.8815
2732.0,0.8814
2733.0,0.8812
2734.0,0.8811
2735.0,0.8809
2736.0,0.8808
2737.0,0.8806
2738.0,0.8805
2739.0,0.8803
2740.0,0.8801
2741.0,0.8798
2742.0,0.8795
2743.0,0.8792
2744.0,0.879
2745.0,0.8787
2746.0,0.8784
2747.0,0.8781
2748.0,0.8778
2749.0,0.8775
2750.0,0.8773
2751.0,0.877
2752.0,0.8768
2753.0,0.8765
2754.0,0.8762
2755.0,0.8759
2756.0,0.8756
2757.0,0.8752
2758.0,0.8748
2759.0,0.8743
2760.0,0.8739
2761.0,0.8735
2762.0,0.8731
2763.0,0.8727
2764.0,0.8723
2765.0,0.8718
2766.0,0.8714
2767.0,0.871
2768.0,0.8706
2769.0,0.8702
2770.0,0.8698
2771.0,0.8693
2772.0,0.8688
2773.0,0.8683
2774.0,0.8678
2775.0,0.8674
2776.0,0.8674
2777.0,0.8673
2778.0,0.8677
2779.0,0.8685
2780.0,0.8693
2781.0,0.87
2782.0,0.8708
2783.0,0.8711
2784.0,0.8715
2785.0,0.8714
2786.0,0.8713
2787.0,0.8711
2788.0,0.8709
2789.0,0.8687
2790.0,0.8665
2791.0,0.8509
2792.0,0.8353
2793.0,0.8196
2794.0,0.804
2795.0,0.7971
2796.0,0.7905
2797.0,0.7906
2798.0,0.7897
2799.0,0.8112
2800.0,0.8318
2801.0,0.8499
2802.0,0.868
2803.0,0.8686
2804.0,0.8692
2805.0,0.8696
2806.0,0.87
2807.0,0.87
2808.0,0.87
2809.0,0.8701
2810.0,0.8703
2811.0,0.8705
2812.0,0.8707
2813.0,0.871
2814.0,0.8714
2815.0,0.8718
2816.0,0.8723
2817.0,0.8731
2818.0,0.8739
2819.0,0.8754
2820.0,0.8768
2821.0,0.8777
2822.0,0.8785
2823.0,0.8792
2824.0,0.8799
2825.0,0.8803
2826.0,0.8807
2827.0,0.881
2828.0,0.8813
2829.0,0.8814
2830.0,0.8814
2831.0,0.8815
2832.0,0.8815
2833.0,0.8814
2834.0,0.8814
2835.0,0.8813
2836.0,0.8812
2837.0,0.8811
2838.0,0.881
2839.0,0.8808
2840.0,0.8807
2841.0,0.8805
2842.0,0.8804
2843.0,0.8803
2844.0,0.8802
2845.0,0.88
2846.0,0.8799
2847.0,0.8797
2848.0,0.8795
2849.0,0.8793
2850.0,0.8792
2851.0,0.8791
2852.0,0.879
2853.0,0.8788
2854.0,0.8787
2855.0,0.8786
2856.0,0.8785
2857.0,0.8782
2858.0,0.878
2859.0,0.8778
2860.0,0.8775
2861.0,0.8773
2862.0,0.8771
2863.0,0.8768
2864.0,0.8767
2865.0,0.8766
2866.0,0.8766
2867.0,0.8766
2868.0,0.8766
2869.0,0.8766
2870.0,0.8766
2871.0,0.8766
2872.0,0.8766
2873.0,0.8766
2874.0,0.8766
2875.0,0.8766
2876.0,0.8767
2877.0,0.8768
2878.0,0.877
2879.0,0.877
2880.0,0.8771
2881.0,0.8771
2882.0,0.8771
2883.0,0.8771
2884.0,0.8773
2885.0,0.8773
2886.0,0.8774
2887.0,0.8774
2888.0,0.8775
2889.0,0.8775
2890.0,0.8775
2891.0,0.8775
2892.0,0.8775
2893.0,0.8775
2894.0,0.8775
2895.0,0.8774
2896.0,0.8773
2897.0,0.8771
2898.0,0.877
2899.0,0.8768
2900.0,0.8768
2901.0,0.8766
2902.0,0.8765
2903.0,0.8764
2904.0,0.8764
2905.0,0.8763
2906.0,0.8763
2907.0,0.8762
2908.0,0.8762
2909.0,0.8761
2910.0,0.876
2911.0,0.8759
2912.0,0.8758
2913.0,0.8757
2914.0,0.8756
2915.0,0.8755
2916.0,0.8755
2917.0,0.8754
2918.0,0.8753
2919.0,0.8752
2920.0,0.8751
2921.0,0.8749
2922.0,0.8748
2923.0,0.8746
2924.0,0.8744
2925.0,0.8742
2926.0,0.8741
2927.0,0.8739
2928.0,0.8737
2929.0,0.8735
2930.0,0.8734
2931.0,0.8732
2932.0,0.8731
2933.0,0.8728
2934.0,0.8728
2935.0,0.8727
2936.0,0.8725
2937.0,0.8725
2938.0,0.8724
2939.0,0.8721
2940.0,0.8721
2941.0,0.872
2942.0,0.8718
2943.0,0.8718
2944.0,0.8717
2945.0,0.8715
2946.0,0.8714
2947.0,0.8713
2948.0,0.8712
2949.0,0.8711
2950.0,0.871
2951.0,0.8708
2952.0,0.8707
2953.0,0.8706
2954.0,0.8706
2955.0,0.8705
2956.0,0.8704
2957.0,0.8703
2958.0,0.8703
2959.0,0.8702
2960.0,0.8701
2961.0,0.87
2962.0,0.8699
2963.0,0.8698
2964.0,0.8698
2965.0,0.8697
2966.0,0.8696
2967.0,0.8695
2968.0,0.8694
2969.0,0.8693
2970.0,0.8693
2971.0,0.8692
2972.0,0.8691
2973.0,0.869
2974.0,0.8689
2975.0,0.8688
2976.0,0.8688
2977.0,0.8687
2978.0,0.8687
2979.0,0.8686
2980.0,0.8685
2981.0,0.8684
2982.0,0.8684
2983.0,0.8683
2984.0,0.8683
2985.0,0.8682
2986.0,0.8681
2987.0,0.868
2988.0,0.868
2989.0,0.8678
2990.0,0.8678
2991.0,0.8678
2992.0,0.8677
2993.0,0.8677
2994.0,0.8677
2995.0,0.8677
2996.0,0.8677
2997.0,0.8677
2998.0,0.8677
2999.0,0.8677
3000.0,0.8677
3001.0,0.8677
3002.0,0.8677
3003.0,0.8677
3004.0,0.8677
3005.0,0.8677
3006.0,0.8677
3007.0,0.8677
3008.0,0.8677
3009.0,0.8677
3010.0,0.8677
3011.0,0.8677
3012.0,0.8677
3013.0,0.8677
3014.0,0.8677
3015.0,0.8677
3016.0,0.8677
3017.0,0.8677
3018.0,0.8677
3019.0,0.8677
3020.0,0.8677
3021.0,0.8675
3022.0,0.8675
3023.0,0.8675
3024.0,0.8675
3025.0,0.8675
3026.0,0.8675
3027.0,0.8675
3028.0,0.8675
3029.0,0.8675
3030.0,0.8675
3031.0,0.8674
3032.0,0.8674
3033.0,0.8674
3034.0,0.8674
3035.0,0.8674
3036.0,0.8674
3037.0,0.8671
3038.0,0.8671
3039.0,0.8668
3040.0,0.8667
3041.0,0.8665
3042.0,0.8663
3043.0,0.8661
3044.0,0.8659
3045.0,0.8657
3046.0,0.8655
3047.0,0.8653
3048.0,0.8652
3049.0,0.865
3050.0,0.8648
3051.0,0.8646
3052.0,0.8644
3053.0,0.8642
3054.0,0.864
3055.0,0.8637
3056.0,0.8635
3057.0,0.8633
3058.0,0.8631
3059.0,0.8628
3060.0,0.8627
3061.0,0.8624
3062.0,0.8621
3063.0,0.862
3064.0,0.8618
3065.0,0.8616
3066.0,0.8614
3067.0,0.8612
3068.0,0.861
3069.0,0.8608
3070.0,0.8606
3071.0,0.8604
3072.0,0.8602
3073.0,0.86
3074.0,0.8598
3075.0,0.8596
3076.0,0.8594
3077.0,0.8592
3078.0,0.8591
3079.0,0.859
3080.0,0.8589
3081.0,0.8588
3082.0,0.8587
3083.0,0.8585
3084.0,0.8584
3085.0,0.8583
3086.0,0.8582
3087.0,0.8581
3088.0,0.858
3089.0,0.8578
3090.0,0.8577
3091.0,0.8577
3092.0,0.8577
3093.0,0.8575
3094.0,0.8575
3095.0,0.8575
3096.0,0.8575
3097.0,0.8575
3098.0,0.8575
3099.0,0.8574
3100.0,0.8574
3101.0,0.8574
3102.0,0.8574
3103.0,0.8574
3104.0,0.8574
3105.0,0.8575
3106.0,0.8577
3107.0,0.8578
3108.0,0.858
3109.0,0.8583
3110.0,0.8586
3111.0,0.859
3112.0,0.8595
3113.0,0.8599
3114.0,0.8604
3115.0,0.8608
3116.0,0.8613
3117.0,0.8618
3118.0,0.8623
3119.0,0.8628
3120.0,0.8634
3121.0,0.8639
3122.0,0.8645
3123.0,0.865
3124.0,0.8656
3125.0,0.8661
3126.0,0.8666
3127.0,0.867
3128.0,0.8675
3129.0,0.8678
3130.0,0.8684
3131.0,0.8688
3132.0,0.8693
3133.0,0.8695
3134.0,0.8698
3135.0,0.8699
3136.0,0.87
3137.0,0.8701
3138.0,0.8702
3139.0,0.8703
3140.0,0.8705
3141.0,0.8706
3142.0,0.8707
3143.0,0.8708
3144.0,0.8709
3145.0,0.871
3146.0,0.8711
3147.0,0.8711
3148.0,0.8711
3149.0,0.871
3150.0,0.8709
3151.0,0.8708
3152.0,0.8708
3153.0,0.8707
3154.0,0.8706
3155.0,0.8705
3156.0,0.8704
3157.0,0.8703
3158.0,0.8702
3159.0,0.8701
3160.0,0.8689
3161.0,0.8698
3162.0,0.8697
3163.0,0.8696
3164.0,0.8695
3165.0,0.8694
3166.0,0.8693
3167.0,0.8691
3168.0,0.869
3169.0,0.8689
3170.0,0.8688
3171.0,0.8687
3172.0,0.8686
3173.0,0.8684
3174.0,0.8683
3175.0,0.8681
3176.0,0.868
3177.0,0.8677
3178.0,0.8675
3179.0,0.8671
3180.0,0.867
3181.0,0.8667
3182.0,0.8665
3183.0,0.8663
3184.0,0.8661
3185.0,0.8658
3186.0,0.8656
3187.0,0.8653
3188.0,0.8651
3189.0,0.8648
3190.0,0.8646
3191.0,0.8643
3192.0,0.8641
3193.0,0.8638
3194.0,0.8635
3195.0,0.8632
3196.0,0.863
3197.0,0.8627
3198.0,0.8625
3199.0,0.8621
3200.0,0.8618
3201.0,0.8616
3202.0,0.8614
3203.0,0.8611
3204.0,0.8609
3205.0,0.8606
3206.0,0.8603
3207.0,0.86
3208.0,0.8598
3209.0,0.8596
3210.0,0.8594
3211.0,0.8592
3212.0,0.8591
3213.0,0.8589
3214.0,0.8587
3215.0,0.8585
3216.0,0.8584
3217.0,0.8582
3218.0,0.858
3219.0,0.8578
3220.0,0.8577
3221.0,0.8575
3222.0,0.8574
3223.0,0.8571
3224.0,0.857
3225.0,0.8567
3226.0,0.8564
3227.0,0.8561
3228.0,0.8558
3229.0,0.8554
3230.0,0.8551
3231.0,0.8548
3232.0,0.8545
3233.0,0.8541
3234.0,0.8538
3235.0,0.8535
3236.0,0.8532
3237.0,0.8528
3238.0,0.8525
3239.0,0.8521
3240.0,0.8518
3241.0,0.8515
3242.0,0.8512
3243.0,0.8508
3244.0,0.8505
3245.0,0.8501
3246.0,0.8497
3247.0,0.8493
3248.0,0.8489
3249.0,0.8485
3250.0,0.8481
3251.0,0.8477
3252.0,0.8473
3253.0,0.8468
3254.0,0.8465
3255.0,0.8461
3256.0,0.8457
3257.0,0.8453
3258.0,0.8449
3259.0,0.8445
3260.0,0.8441
3261.0,0.8437
3262.0,0.8434
3263.0,0.843
3264.0,0.8425
3265.0,0.8421
3266.0,0.8418
3267.0,0.8414
3268.0,0.841
3269.0,0.8406
3270.0,0.8403
3271.0,0.84
3272.0,0.8398
3273.0,0.8395
3274.0,0.8393
3275.0,0.839
3276.0,0.839
3277.0,0.839
3278.0,0.8391
3279.0,0.8392
3280.0,0.8393
3281.0,0.8394
3282.0,0.8395
3283.0,0.8397
3284.0,0.84
3285.0,0.8405
3286.0,0.841
3287.0,0.8418
3288.0,0.8428
3289.0,0.8437
3290.0,0.8446
3291.0,0.8451
3292.0,0.8456
3293.0,0.8458
3294.0,0.8461
3295.0,0.8461
3296.0,0.8461
3297.0,0.846
3298.0,0.846
3299.0,0.8459
3300.0,0.8459
3301.0,0.8458
3302.0,0.8458
3303.0,0.8458
3304.0,0.8459
3305.0,0.8459
3306.0,0.846
3307.0,0.846
3308.0,0.8461
3309.0,0.8461
3310.0,0.8461
3311.0,0.8461
3312.0,0.8461
3313.0,0.846
3314.0,0.846
3315.0,0.8459
3316.0,0.8458
3317.0,0.8457
3318.0,0.8457
3319.0,0.8456
3320.0,0.8456
3321.0,0.8455
3322.0,0.8455
3323.0,0.8454
3324.0,0.8454
3325.0,0.8453
3326.0,0.8452
3327.0,0.8451
3328.0,0.845
3329.0,0.8449
3330.0,0.8448
3331.0,0.8447
3332.0,0.8446
3333.0,0.8445
3334.0,0.8444
3335.0,0.8443
3336.0,0.8442
3337.0,0.8442
3338.0,0.8442
3339.0,0.8442
3340.0,0.8442
3341.0,0.8442
3342.0,0.8442
3343.0,0.8443
3344.0,0.8444
3345.0,0.8451
3346.0,0.8458
3347.0,0.8491
3348.0,0.8524
3349.0,0.855
3350.0,0.8575
3351.0,0.858
3352.0,0.8585
3353.0,0.8587
3354.0,0.8586
3355.0,0.8586
3356.0,0.8584
3357.0,0.8575
3358.0,0.8567
3359.0,0.8556
3360.0,0.8546
3361.0,0.8535
3362.0,0.8525
3363.0,0.8518
3364.0,0.8511
3365.0,0.8505
3366.0,0.85
3367.0,0.85
3368.0,0.85
3369.0,0.8502
3370.0,0.8504
3371.0,0.8506
3372.0,0.8509
3373.0,0.8513
3374.0,0.8518
3375.0,0.8524
3376.0,0.8531
3377.0,0.8539
3378.0,0.8547
3379.0,0.8559
3380.0,0.8571
3381.0,0.8586
3382.0,0.8601
3383.0,0.8616
3384.0,0.8631
3385.0,0.8642
3386.0,0.8654
3387.0,0.8663
3388.0,0.8673
3389.0,0.8681
3390.0,0.869
3391.0,0.8692
3392.0,0.8694
3393.0,0.8695
3394.0,0.8696
3395.0,0.8695
3396.0,0.8695
3397.0,0.8694
3398.0,0.8693
3399.0,0.8691
3400.0,0.869
3401.0,0.8687
3402.0,0.8685
3403.0,0.8682
3404.0,0.8678
3405.0,0.8675
3406.0,0.8674
3407.0,0.8668
3408.0,0.8664
3409.0,0.8659
3410.0,0.8654
3411.0,0.8647
3412.0,0.8641
3413.0,0.8628
3414.0,0.8616
3415.0,0.8601
3416.0,0.8586
3417.0,0.8568
3418.0,0.8552
3419.0,0.8535
3420.0,0.8518
3421.0,0.8485
3422.0,0.8452
3423.0,0.8411
3424.0,0.837
3425.0,0.8324
3426.0,0.8278
3427.0,0.822
3428.0,0.8161
3429.0,0.8097
3430.0,0.8033
3431.0,0.7974
3432.0,0.7915
3433.0,0.786
3434.0,0.7805
3435.0,0.7703
3436.0,0.7601
3437.0,0.7482
3438.0,0.7362
3439.0,0.7243
3440.0,0.7124
3441.0,0.7005
3442.0,0.6886
3443.0,0.6767
3444.0,0.6648
3445.0,0.6511
3446.0,0.6374
3447.0,0.6324
3448.0,0.6275
3449.0,0.6268
3450.0,0.6262
3451.0,0.6259
3452.0,0.6256
3453.0,0.6255
3454.0,0.6255
3455.0,0.6258
3456.0,0.6277
3457.0,0.6276
3458.0,0.6276
3459.0,0.6292
3460.0,0.6308
3461.0,0.6327
3462.0,0.6346
3463.0,0.6501
3464.0,0.6657
3465.0,0.6874
3466.0,0.7092
3467.0,0.731
3468.0,0.7528
3469.0,0.7607
3470.0,0.7686
3471.0,0.7686
3472.0,0.7686
3473.0,0.7281
3474.0,0.7725
3475.0,0.6455
3476.0,0.6034
3477.0,0.5612
3478.0,0.5191
3479.0,0.511
3480.0,0.5031
3481.0,0.5052
3482.0,0.5073
3483.0,0.5093
3484.0,0.5037
3485.0,0.5191
3486.0,0.5268
3487.0,0.5607
3488.0,0.5947
3489.0,0.6286
3490.0,0.6625
3491.0,0.6965
3492.0,0.7305
3493.0,0.7644
3494.0,0.7984
3495.0,0.8323
3496.0,0.8663
3497.0,0.8695
3498.0,0.8727
3499.0,0.8731
3500.0,0.8735
3501.0,0.8739
3502.0,0.8743
3503.0,0.8743
3504.0,0.8743
3505.0,0.8742
3506.0,0.8742
3507.0,0.8741
3508.0,0.8741
3509.0,0.874
3510.0,0.874
3511.0,0.874
3512.0,0.8741
3513.0,0.8741
3514.0,0.8742
3515.0,0.8742
3516.0,0.8743
3517.0,0.8743
3518.0,0.8744
3519.0,0.8744
3520.0,0.8744
3521.0,0.8744
3522.0,0.8745
3523.0,0.8745
3524.0,0.8746
3525.0,0.8746
3526.0,0.8746
3527.0,0.8746
3528.0,0.8747
3529.0,0.8747
3530.0,0.8747
3531.0,0.8747
3532.0,0.8748
3533.0,0.8749
3534.0,0.8751
3535.0,0.8753
3536.0,0.8755
3537.0,0.8756
3538.0,0.8758
3539.0,0.876
3540.0,0.8762
3541.0,0.8763
3542.0,0.8765
3543.0,0.8766
3544.0,0.8768
3545.0,0.8768
3546.0,0.8771
3547.0,0.8771
3548.0,0.8774
3549.0,0.8775
3550.0,0.8777
3551.0,0.8778
3552.0,0.878
3553.0,0.8781
3554.0,0.8783
3555.0,0.8784
3556.0,0.8786
3557.0,0.8786
3558.0,0.8787
3559.0,0.8787
3560.0,0.8788
3561.0,0.8788
3562.0,0.8789
3563.0,0.8789
3564.0,0.8789
3565.0,0.8789
3566.0,0.879
3567.0,0.879
3568.0,0.879
3569.0,0.8789
3570.0,0.8789
3571.0,0.8788
3572.0,0.8788
3573.0,0.8787
3574.0,0.8787
3575.0,0.8786
3576.0,0.8786
3577.0,0.8785
3578.0,0.8784
3579.0,0.8783
3580.0,0.8783
3581.0,0.8782
3582.0,0.8782
3583.0,0.8781
3584.0,0.8781
3585.0,0.878
3586.0,0.878
3587.0,0.8778
3588.0,0.8778
3589.0,0.8778
3590.0,0.8777
3591.0,0.8775
3592.0,0.8775
3593.0,0.8775
3594.0,0.8775
3595.0,0.8774
3596.0,0.8774
3597.0,0.8773
3598.0,0.8773
3599.0,0.8771
3600.0,0.8771
3601.0,0.877
3602.0,0.8768
3603.0,0.8767
3604.0,0.8766
3605.0,0.8764
3606.0,0.8763
3607.0,0.8761
3608.0,0.876
3609.0,0.8758
3610.0,0.8758
3611.0,0.8758
3612.0,0.8759
3613.0,0.8763
3614.0,0.8767
3615.0,0.8771
3616.0,0.8775
3617.0,0.8778
3618.0,0.8783
3619.0,0.8785
3620.0,0.8788
3621.0,0.8789
3622.0,0.879
3623.0,0.8791
3624.0,0.8792
3625.0,0.8793
3626.0,0.8794
3627.0,0.8794
3628.0,0.8794
3629.0,0.8793
3630.0,0.8792
3631.0,0.8792
3632.0,0.8792
3633.0,0.8791
3634.0,0.8791
3635.0,0.8791
3636.0,0.8791
3637.0,0.8788
3638.0,0.8786
3639.0,0.8783
3640.0,0.8781
3641.0,0.8778
3642.0,0.8775
3643.0,0.8771
3644.0,0.877
3645.0,0.8766
3646.0,0.8762
3647.0,0.8758
3648.0,0.8755
3649.0,0.8754
3650.0,0.8754
3651.0,0.8753
3652.0,0.8752
3653.0,0.8764
3654.0,0.8775
3655.0,0.8782
3656.0,0.8789
3657.0,0.8791
3658.0,0.8792
3659.0,0.8792
3660.0,0.8792
3661.0,0.879
3662.0,0.8788
3663.0,0.8782
3664.0,0.8777
3665.0,0.8771
3666.0,0.8766
3667.0,0.8763
3668.0,0.876
3669.0,0.876
3670.0,0.876
3671.0,0.876
3672.0,0.876
3673.0,0.876
3674.0,0.876
3675.0,0.876
3676.0,0.8761
3677.0,0.8762
3678.0,0.8764
3679.0,0.8765
3680.0,0.8767
3681.0,0.8768
3682.0,0.8771
3683.0,0.8774
3684.0,0.8777
3685.0,0.8778
3686.0,0.8782
3687.0,0.8784
3688.0,0.8786
3689.0,0.8787
3690.0,0.8789
3691.0,0.879
3692.0,0.8792
3693.0,0.8792
3694.0,0.8792
3695.0,0.8791
3696.0,0.8789
3697.0,0.8787
3698.0,0.8785
3699.0,0.878
3700.0,0.8775
3701.0,0.8768
3702.0,0.8761
3703.0,0.8753
3704.0,0.8745
3705.0,0.873
3706.0,0.8716
3707.0,0.8715
3708.0,0.8716
3709.0,0.8717
3710.0,0.872
3711.0,0.8724
3712.0,0.8728
3713.0,0.8733
3714.0,0.8737
3715.0,0.8741
3716.0,0.8746
3717.0,0.8749
3718.0,0.8753
3719.0,0.8756
3720.0,0.8759
3721.0,0.8762
3722.0,0.8766
3723.0,0.8768
3724.0,0.8767
3725.0,0.8767
3726.0,0.8764
3727.0,0.8761
3728.0,0.8758
3729.0,0.8755
3730.0,0.8752
3731.0,0.8748
3732.0,0.8745
3733.0,0.8741
3734.0,0.8737
3735.0,0.8733
3736.0,0.873
3737.0,0.8728
3738.0,0.8728
3739.0,0.8728
3740.0,0.8731
3741.0,0.8734
3742.0,0.8737
3743.0,0.8742
3744.0,0.8748
3745.0,0.8753
3746.0,0.8759
3747.0,0.8764
3748.0,0.877
3749.0,0.8775
3750.0,0.8781
3751.0,0.8786
3752.0,0.8791
3753.0,0.8796
3754.0,0.8802
3755.0,0.8805
3756.0,0.8809
3757.0,0.8812
3758.0,0.8816
3759.0,0.8818
3760.0,0.8823
3761.0,0.8824
3762.0,0.8824
3763.0,0.8824
3764.0,0.8824
3765.0,0.8823
3766.0,0.8823
3767.0,0.8821
3768.0,0.8821
3769.0,0.8821
3770.0,0.8821
3771.0,0.8818
3772.0,0.8815
3773.0,0.8812
3774.0,0.8809
3775.0,0.8806
3776.0,0.8804
3777.0,0.88
3778.0,0.8796
3779.0,0.8791
3780.0,0.8787
3781.0,0.8782
3782.0,0.8778
3783.0,0.8756
3784.0,0.8735
3785.0,0.8721
3786.0,0.871
